TimeStamp,ECG Data,GSR Data,EMG Data
16,504,526,567
24,496,522,471
31,500,524,506
40,500,524,546
49,499,522,477
56,508,525,550
64,500,521,475
72,494,523,501
80,482,523,516
89,508,521,460
96,603,524,564
104,675,521,488
112,741,523,597
120,668,523,579
129,514,521,400
135,460,524,541
144,436,521,514
151,460,522,457
160,476,523,549
168,476,521,482
176,486,524,550
184,479,521,386
192,488,523,499
200,489,523,488
208,490,521,439
217,500,524,590
224,493,521,537
232,500,523,540
240,502,523,540
248,502,521,452
256,513,525,595
264,506,522,447
271,514,523,481
280,517,523,543
288,516,522,501
296,529,525,630
305,527,521,444
312,537,523,511
320,540,523,522
328,541,522,465
336,551,525,587
345,543,522,478
352,547,524,543
360,544,524,586
368,531,522,445
375,527,525,563
385,508,522,446
391,500,523,485
400,488,524,553
408,476,522,435
416,479,525,534
424,469,522,477
432,474,524,542
440,471,524,487
448,471,522,435
456,484,525,582
464,474,522,460
473,482,525,499
480,482,524,519
488,483,522,435
495,495,526,566
504,490,522,432
512,499,524,510
520,499,524,539
528,496,522,484
536,505,526,610
544,496,522,404
552,506,525,533
561,505,523,514
568,501,522,448
576,510,526,633
584,499,522,455
592,508,525,581
601,504,524,517
608,502,523,407
615,509,526,568
624,501,522,407
632,507,525,524
641,503,524,512
648,502,523,461
656,511,526,586
664,500,522,480
672,508,525,557
680,504,524,550
688,503,523,509
696,511,526,584
704,502,523,411
712,509,525,461
720,506,524,474
729,506,523,452
735,514,526,576
744,512,523,468
751,522,525,545
760,516,524,567
769,518,524,548
776,529,526,606
784,518,523,449
792,520,525,474
800,507,524,454
808,498,523,438
817,503,526,580
824,497,523,471
832,501,526,589
840,494,525,555
848,495,524,411
856,505,527,526
864,500,523,413
871,509,526,610
880,500,525,490
888,482,524,450
897,497,527,596
904,547,523,488
912,639,526,604
920,720,525,517
928,717,524,507
936,582,527,529
944,483,524,389
952,445,526,506
960,448,525,574
968,465,524,472
975,479,527,520
985,476,524,433
992,484,527,584
1000,481,525,607
1008,485,525,440
1016,496,527,528
1025,490,524,392
1032,496,526,513
1040,497,525,506
1048,499,525,482
1056,506,527,589
1064,500,524,490
1073,511,527,596
1080,511,526,570
1088,513,525,467
1095,523,527,595
1104,516,524,409
1113,525,528,564
1120,526,526,518
1128,534,525,469
1136,546,528,582
1144,541,524,437
1153,550,527,551
1160,544,526,555
1168,541,525,485
1176,541,528,599
1184,524,525,556
1192,518,528,497
1199,502,526,485
1208,486,525,436
1215,484,528,548
1224,472,525,427
1232,477,528,530
1241,466,526,466
1248,468,526,471
1256,473,528,563
1264,467,525,445
1272,477,528,563
1281,474,526,509
1288,477,526,516
1296,487,528,563
1304,480,525,450
1312,492,528,564
1319,490,526,481
1329,494,526,443
1336,498,528,542
1344,493,525,444
1352,504,528,582
1360,499,526,486
1369,503,527,485
1376,509,529,627
1384,502,525,397
1392,510,528,537
1400,506,526,461
1409,503,526,485
1416,507,529,545
1424,501,525,445
1432,509,528,529
1439,500,526,483
1448,503,526,469
1455,512,529,623
1464,497,525,449
1472,512,529,589
1480,505,526,500
1488,505,527,506
1497,510,528,586
1504,501,525,431
1512,510,529,580
1520,503,526,465
1528,505,526,452
1537,508,528,541
1544,501,525,422
1552,515,529,554
1559,513,526,538
1568,520,527,511
1575,525,529,608
1585,516,525,509
1592,529,529,674
1600,522,526,395
1608,519,527,410
1616,514,528,538
1625,498,525,446
1632,505,528,544
1640,498,526,484
1648,502,526,491
1656,504,528,564
1665,498,525,471
1672,504,529,646
1680,502,527,478
1688,503,527,501
1695,506,529,633
1704,482,525,354
1713,494,529,599
1720,534,527,502
1728,635,527,490
1736,713,528,613
1744,719,525,438
1753,602,529,559
1760,481,526,496
1768,441,526,445
1776,449,528,545
1784,461,525,437
1793,479,529,546
1800,476,527,479
1808,480,527,522
1815,488,529,572
1824,481,526,416
1832,493,529,576
1840,489,527,546
1848,494,527,528
1856,500,529,607
1864,495,526,441
1872,507,529,620
1881,500,526,469
1888,505,527,495
1896,513,529,509
1904,507,526,357
1912,524,530,595
1921,520,526,514
1928,526,527,448
1935,532,529,559
1944,531,526,472
1951,548,529,620
1960,541,526,515
1969,548,528,524
1976,550,529,548
1984,539,526,405
1992,540,530,607
2000,526,527,489
2009,518,528,523
2016,506,529,558
2024,491,526,408
2032,492,530,596
2040,476,527,513
2049,476,528,450
2055,476,530,526
2064,469,527,443
2071,481,530,505
2080,480,527,437
2088,479,529,532
2096,482,530,594
2104,478,527,425
2112,490,531,574
2120,486,528,476
2128,495,529,472
2137,498,530,548
2144,490,527,537
2152,510,531,617
2160,502,528,523
2168,500,529,422
2176,502,530,504
2184,498,527,405
2191,509,531,569
2200,504,528,464
2208,511,530,520
2216,510,530,584
2225,506,528,487
2232,512,531,627
2240,516,528,598
2248,516,529,450
2256,503,530,456
2265,500,528,368
2272,511,532,564
2280,502,529,438
2288,507,530,501
2295,508,531,553
2305,509,528,502
2312,524,532,607
2320,514,529,553
2328,517,530,498
2336,521,531,475
2344,522,529,396
2352,525,532,569
2360,509,529,488
2368,505,530,506
2376,501,531,530
2384,500,529,433
2393,505,533,592
2399,495,529,516
2408,505,531,580
2415,507,532,549
2424,505,529,459
2433,508,533,563
2440,497,529,444
2448,498,531,489
2456,491,532,534
2464,515,529,412
2472,603,533,575
2481,663,529,494
2488,704,531,573
2496,672,531,544
2504,555,529,430
2512,474,533,586
2520,437,529,466
2528,448,531,535
2535,466,532,547
2544,470,529,488
2552,480,533,714
2561,472,529,363
2568,488,531,424
2576,487,532,482
2584,487,529,415
2592,501,533,589
2600,491,529,466
2608,500,531,511
2616,500,532,570
2624,495,530,484
2632,509,534,701
2639,501,530,503
2649,516,532,405
2656,516,532,459
2664,516,530,402
2672,523,534,580
2680,517,530,442
2689,532,533,559
2696,533,533,580
2704,529,530,463
2712,540,534,621
2720,531,530,460
2728,540,533,548
2737,534,532,555
2743,525,530,448
2752,525,534,589
2759,507,530,448
2768,510,533,537
2777,494,532,511
2784,490,530,436
2792,493,535,593
2800,478,531,444
2808,488,533,549
2817,483,532,544
2824,483,531,432
2832,495,535,585
2840,482,531,418
2848,490,533,586
2856,491,532,649
2863,489,531,339
2872,502,535,473
2880,493,531,374
2888,504,533,530
2896,497,532,610
2905,502,531,410
2912,512,535,512
2920,502,531,388
2928,512,534,518
2936,507,533,547
2945,506,531,479
2952,515,535,766
2960,501,531,570
2968,511,534,415
2976,509,533,372
2983,509,531,322
2993,520,535,531
3000,511,531,409
3008,519,534,527
3016,517,533,511
3024,525,532,459
3033,529,535,609
3040,511,531,473
3048,515,534,597
3056,500,533,535
3064,497,532,460
3073,505,536,599
3080,492,532,445
3088,506,534,531
3096,501,533,588
3103,499,532,459
3112,509,536,547
3121,502,532,405
3128,508,535,516
3136,494,533,482
3144,502,532,424
3152,571,536,580
3161,625,532,438
3168,682,535,585
3176,697,534,553
3184,615,533,421
3192,528,536,577
3201,449,532,417
3207,444,535,558
3216,448,534,497
3223,464,533,420
3232,476,536,695
3240,469,532,462
3248,484,535,465
3256,479,534,446
3264,483,533,415
3272,494,536,602
3280,486,532,453
3289,502,536,578
3296,496,535,543
3304,499,533,448
3312,507,537,611
3320,498,533,497
3328,514,536,580
3336,508,534,527
3343,510,533,484
3352,521,537,560
3360,511,533,400
3368,528,537,554
3377,519,534,518
3384,524,533,489
3392,533,537,596
3400,527,533,462
3408,535,537,622
3417,525,535,501
3424,523,534,448
3432,524,537,616
3440,506,533,449
3447,514,537,601
3457,502,534,519
3463,501,534,416
3472,499,537,539
3480,480,533,411
3488,493,537,562
3496,482,535,511
3504,484,534,413
3512,495,537,503
3520,490,534,356
3528,511,537,544
3536,504,535,547
3545,505,535,442
3552,502,538,596
3560,486,534,436
3567,499,537,579
3576,489,535,485
3584,493,535,442
3592,504,538,560
3600,494,534,406
3608,515,537,565
3616,504,535,604
3624,505,535,442
3633,511,537,545
3640,503,534,471
3648,521,538,510
3656,526,535,465
3664,537,535,456
3673,538,538,566
3680,511,534,415
3688,520,538,628
3696,514,535,475
3703,518,535,468
3713,508,538,547
3720,494,534,454
3728,506,538,493
3736,494,536,395
3744,516,536,403
3752,528,538,568
3760,501,535,454
3768,506,538,538
3776,505,536,473
3784,503,536,664
3792,504,538,508
3801,487,535,323
3808,504,538,451
3816,549,536,415
3823,618,536,458
3832,666,538,563
3841,688,535,508
3848,655,539,670
3856,531,536,427
3864,467,536,463
3872,437,539,860
3880,443,535,202
3889,473,539,401
3896,472,536,408
3904,505,537,424
3912,495,539,560
3920,462,535,482
3929,475,539,563
3936,472,536,491
3943,483,536,589
3952,499,539,714
3959,490,536,322
3969,507,540,704
3976,497,536,440
3984,498,537,315
3992,519,539,483
4000,500,536,379
4008,517,540,580
4016,513,537,558
4024,519,537,516
4032,518,540,680
4040,510,536,519
4048,530,540,608
4057,523,537,374
4063,535,537,394
4072,536,539,552
4080,525,536,441
4088,522,540,605
4097,510,536,507
4104,509,537,609
4112,506,539,598
4120,499,536,461
4128,505,541,570
4136,489,537,403
4145,491,538,427
4152,491,540,542
4160,483,536,416
4168,497,540,545
4176,494,537,488
4184,494,538,461
4192,498,540,611
4199,483,536,504
4208,500,541,590
4216,486,537,464
4225,508,538,525
4232,515,540,562
4240,503,537,386
4248,534,541,497
4256,496,537,417
4264,495,539,530
4272,505,540,590
4280,504,537,547
4288,520,541,628
4296,515,538,494
4303,519,538,459
4313,521,540,472
4319,515,537,382
4328,526,541,543
4336,505,537,473
4344,507,539,542
4353,503,540,605
4360,485,537,467
4368,494,541,625
4376,487,538,501
4384,499,539,508
4392,504,540,660
4401,497,537,330
4408,508,541,511
4416,493,538,445
4423,495,539,504
4432,490,540,558
4440,504,537,452
4448,577,542,627
4456,635,538,467
4464,700,539,617
4472,698,540,539
4481,583,538,376
4488,494,542,594
4496,437,538,463
4504,440,540,477
4512,456,541,551
4520,463,538,485
4528,477,542,622
4536,470,538,437
4544,481,539,621
4552,482,541,536
4559,481,538,366
4569,495,542,581
4576,485,538,444
4584,494,540,495
4592,497,540,567
4600,495,538,476
4609,507,542,678
4616,498,539,508
4624,510,540,607
4632,510,541,622
4640,506,538,388
4648,521,542,509
4657,511,538,430
4663,519,540,505
4672,522,541,531
4679,516,538,405
4688,530,543,636
4697,519,538,492
4704,527,540,507
4712,523,541,664
4720,515,538,438
4728,521,543,554
4737,505,538,448
4744,502,540,530
4752,495,541,506
4760,487,538,380
4768,496,543,565
4776,479,538,491
4784,487,540,490
4792,490,541,545
4799,485,538,557
4808,497,543,517
4815,488,539,405
4825,498,541,472
4832,497,541,474
4840,495,538,406
4848,506,543,574
4856,495,539,421
4865,508,541,553
4872,504,541,540
4880,500,539,486
4888,514,543,560
4896,501,539,381
4904,511,541,494
4913,507,540,524
4919,508,539,432
4928,522,543,592
4935,508,539,455
4944,518,541,566
4953,519,541,547
4960,518,539,415
4968,520,543,589
4976,501,539,531
4984,501,542,544
4993,492,541,491
5000,489,539,403
5008,500,543,662
5016,486,539,510
5024,497,541,455
5032,495,541,504
5039,490,539,452
5048,504,543,595
5055,494,539,452
5064,496,542,541
5072,480,541,609
5081,494,539,472
5088,570,543,607
5096,641,539,512
5104,731,542,603
5112,717,541,628
5121,561,540,410
5128,487,543,542
5136,435,539,414
5144,446,541,504
5152,459,541,556
5159,466,539,464
5169,477,543,624
5175,472,539,464
5184,483,542,547
5192,482,541,617
5200,485,539,484
5209,494,543,558
5216,486,539,487
5224,498,542,513
5232,497,541,509
5240,499,540,452
5249,506,543,600
5256,497,539,463
5264,509,542,541
5272,509,541,535
5280,509,539,465
5288,523,543,642
5295,518,539,500
5304,531,542,539
5311,530,541,545
5320,534,540,504
5328,543,543,601
5337,534,539,451
5344,542,542,584
5352,534,541,553
5360,526,540,590
5368,524,543,507
5377,501,539,343
5384,503,542,492
5392,490,541,494
5400,483,540,427
5408,485,543,583
5415,472,539,429
5425,483,543,548
5431,479,542,524
5440,479,540,446
5448,489,543,596
5456,481,539,470
5465,497,543,570
5472,492,541,610
5480,491,540,414
5488,500,543,513
5496,493,539,392
5505,506,543,572
5512,501,541,519
5520,500,540,430
5528,510,543,569
5535,500,539,463
5544,512,543,558
5551,506,542,533
5560,503,540,402
5568,512,543,579
5576,506,539,444
5584,523,543,564
5593,516,541,488
5600,517,540,482
5608,526,544,581
5616,518,539,425
5624,529,543,533
5633,515,541,479
5640,506,540,430
5648,502,543,615
5656,489,539,449
5664,499,543,564
5671,492,541,530
5681,494,540,506
5688,500,543,563
5696,492,539,377
5704,504,543,550
5712,498,541,480
5721,502,541,452
5728,496,543,602
5736,472,539,452
5744,504,543,524
5752,589,541,486
5761,678,540,498
5768,750,544,633
5776,699,539,445
5784,544,543,569
5791,456,541,485
5800,438,541,420
5807,458,544,560
5816,465,539,423
5824,481,543,554
5832,474,541,501
5840,480,541,475
5849,487,543,598
5856,479,539,435
5864,491,543,552
5872,487,541,498
5880,492,540,470
5889,501,543,594
5896,494,540,439
5904,507,543,522
5912,504,541,467
5920,508,540,457
5927,515,543,573
5937,508,539,435
5943,521,543,577
5952,518,541,505
5960,525,541,472
5968,535,543,613
5977,529,539,425
5984,542,543,594
5992,534,541,507
6000,538,540,460
6008,541,543,557
6017,528,539,411
6024,533,543,536
6032,516,541,480
6040,507,541,470
6047,504,543,592
6056,486,539,420
6063,490,543,555
6072,479,541,497
6080,479,541,475
6088,483,543,585
6096,476,539,496
6105,488,544,536
6112,481,541,447
6120,486,540,427
6128,492,543,535
6136,487,540,401
6145,501,544,555
6152,494,541,499
6160,497,541,463
6167,504,543,585
6176,496,539,432
6183,509,544,579
6193,499,540,475
6200,505,541,478
6208,509,543,589
6216,499,540,457
6224,510,544,655
6233,501,540,455
6240,505,541,458
6248,507,543,543
6256,498,540,454
6264,511,544,536
6273,503,541,410
6280,506,541,433
6287,512,544,585
6296,500,540,428
6303,512,544,581
6312,501,541,452
6321,510,542,524
6328,511,543,628
6336,502,540,412
6344,513,544,544
6352,504,540,474
6361,508,541,482
6368,511,543,555
6376,503,540,408
6384,515,544,579
6392,505,541,474
6401,510,542,507
6407,512,544,601
6416,505,540,429
6423,517,544,563
6432,507,541,474
6440,513,542,526
6448,515,544,607
6456,510,540,450
6464,525,544,567
6472,516,541,459
6480,521,542,522
6489,527,543,569
6496,524,540,405
6504,532,544,569
6511,515,541,481
6520,512,542,510
6528,506,543,565
6536,496,540,410
6544,507,544,581
6552,496,541,508
6560,502,542,512
6568,503,543,531
6577,497,540,431
6584,507,544,616
6592,496,541,490
6600,493,542,486
6608,480,543,532
6617,496,540,368
6624,584,544,561
6631,664,541,502
6640,744,542,518
6647,700,544,596
6657,529,540,422
6664,464,545,594
6672,438,541,486
6680,463,542,477
6688,474,543,568
6696,471,540,434
6704,483,544,570
6712,477,541,466
6720,483,542,510
6728,486,543,569
6736,483,540,383
6745,498,545,571
6752,490,541,468
6760,499,542,500
6767,502,544,620
6776,497,541,439
6785,510,545,570
6792,503,541,465
6800,512,543,502
6808,515,544,553
6816,513,541,457
6824,527,545,662
6833,520,541,425
6840,530,542,463
6848,536,543,544
6856,534,541,439
6864,547,545,613
6872,536,541,461
6880,543,542,503
6887,544,544,585
6896,531,541,437
6904,533,545,619
6913,513,541,475
6920,510,543,560
6928,501,544,518
6936,485,541,407
6944,489,545,580
6952,473,541,437
6960,477,542,463
6968,478,544,543
6976,474,541,444
6984,486,545,583
6991,478,541,480
7001,489,543,535
7007,490,544,547
7016,484,541,419
7024,498,545,614
7032,489,541,454
7041,499,544,515
7048,499,544,552
7056,494,541,432
7064,506,545,568
7072,495,541,431
7080,504,543,510
7089,502,543,558
7096,499,541,446
7104,509,546,601
7111,499,542,456
7120,507,543,540
7128,504,544,527
7136,498,541,429
7144,510,546,594
7152,498,542,470
7160,507,544,553
7169,503,544,512
7176,499,541,386
7184,510,546,565
7192,499,542,448
7200,507,544,539
7208,504,543,552
7216,500,541,417
7224,511,546,578
7231,501,542,464
7240,510,544,507
7247,509,544,548
7257,505,542,427
7264,514,546,602
7272,503,542,478
7280,512,544,543
7288,509,544,515
7297,506,542,438
7304,516,546,599
7312,503,542,438
7320,511,544,533
7328,509,544,539
7335,506,542,446
7345,515,546,606
7351,508,542,472
7360,522,544,507
7367,521,544,572
7376,517,542,454
7385,530,546,582
7392,524,542,450
7400,527,544,524
7408,519,544,542
7416,508,542,457
7425,507,546,600
7432,494,542,472
7440,504,544,528
7448,501,544,522
7456,497,542,441
7464,507,546,576
7471,497,542,474
7480,507,544,539
7487,503,544,544
7496,487,542,437
7504,486,546,587
7513,508,542,398
7520,603,545,525
7528,681,544,565
7536,739,542,480
7544,675,546,597
7553,507,542,449
7560,459,544,557
7568,441,544,510
7576,458,542,426
7584,479,546,624
7591,472,542,367
7601,484,545,497
7607,482,545,565
7616,481,543,480
7624,493,546,577
7632,486,542,428
7641,498,546,563
7648,494,545,561
7656,496,543,373
7664,507,547,553
7672,498,542,421
7681,510,545,540
7688,508,544,541
7696,507,543,452
7704,520,547,613
7711,512,543,468
7720,526,546,586
7727,526,545,583
7736,526,543,489
7744,539,547,604
7752,531,543,446
7760,545,546,600
7769,539,544,524
7776,537,543,419
7784,543,547,586
7792,527,543,426
7800,530,546,522
7809,512,544,506
7816,502,543,449
7824,500,547,597
7831,482,543,448
7840,487,546,562
7847,476,545,508
7857,474,544,479
7864,482,547,580
7872,473,543,420
7880,486,546,560
7888,481,545,500
7897,485,544,415
7904,494,547,568
7912,486,543,421
7920,498,546,528
7928,494,545,499
7937,495,544,448
7944,504,547,598
7951,494,543,454
7960,505,547,569
7967,500,545,537
7976,500,544,478
7985,506,547,528
7992,498,543,414
8000,508,547,543
8008,502,545,508
8016,504,544,490
8025,509,547,592
8032,498,543,425
8040,509,546,542
8048,500,545,488
8056,501,544,464
8065,508,547,605
8072,498,544,457
8080,510,547,565
8087,504,545,526
8096,503,544,441
8104,508,547,565
8112,500,544,414
8120,512,547,567
8128,504,545,502
8136,506,545,459
8144,511,548,593
8153,502,544,438
8160,512,547,546
8168,505,545,509
8176,506,544,471
8184,513,548,566
8193,503,544,407
8200,514,547,535
8207,508,546,524
8216,509,545,449
8223,515,548,605
8232,505,544,468
8241,517,548,585
8248,509,546,515
8256,512,545,476
8264,521,548,562
8272,516,544,416
8281,525,548,549
8288,518,546,507
8296,526,545,450
8304,534,548,586
8311,518,544,452
8321,522,548,578
8327,508,546,545
8336,500,545,489
8344,504,548,587
8352,497,544,439
8360,508,549,586
8368,499,546,538
8376,502,546,462
8384,508,548,524
8392,498,545,402
8400,504,548,553
8409,479,545,480
8416,484,545,433
8424,554,549,577
8431,630,545,463
8440,725,549,608
8448,722,546,532
8456,602,546,507
8464,482,548,569
8472,435,545,425
8480,456,549,548
8488,465,546,429
8497,477,546,468
8504,483,549,589
8512,474,545,419
8520,490,549,566
8528,482,546,474
8537,489,546,484
8544,497,549,609
8551,489,545,435
8560,502,549,601
8567,496,546,514
8577,503,547,543
8584,509,549,559
8592,501,545,377
8600,516,549,564
8608,508,546,478
8616,516,547,475
8624,523,549,577
8632,518,545,440
8640,532,549,591
8648,528,546,489
8656,535,547,497
8665,541,549,612
8671,536,545,439
8680,547,549,569
8687,536,547,514
8696,537,547,490
8705,531,549,527
8712,516,546,419
8720,516,550,567
8728,496,547,489
8736,492,547,491
8744,487,549,593
8753,474,546,415
8760,483,550,546
8768,473,547,487
8776,478,547,498
8784,481,549,545
8792,475,546,408
8800,489,550,571
8807,483,547,481
8816,489,547,458
8824,492,549,543
8833,488,546,437
8840,500,550,578
8848,493,547,519
8856,499,548,492
8864,501,549,587
8872,495,546,437
8880,506,550,533
8888,498,547,463
8896,501,547,459
8904,504,549,563
8911,497,546,473
8921,508,551,579
8927,499,548,468
8936,503,548,499
8944,504,549,584
8952,498,547,433
8961,509,551,568
8968,500,547,473
8976,504,548,496
8984,507,550,594
8992,499,547,435
9000,510,551,562
9009,500,547,453
9016,505,548,472
9024,507,550,543
9032,500,547,427
9040,513,551,583
9048,502,547,483
9056,507,548,480
9064,510,550,573
9072,503,547,427
9080,514,551,590
9089,502,547,473
9096,507,548,504
9104,509,550,575
9112,501,547,431
9120,512,551,599
9128,504,547,475
9136,511,548,485
9144,520,550,572
9152,512,547,411
9160,523,551,570
9167,518,548,462
9177,528,549,499
9184,521,550,552
9192,509,547,447
9200,512,552,630
9208,495,548,523
9217,503,550,555
9224,503,551,624
9232,496,547,505
9240,508,552,610
9248,497,548,381
9256,507,549,445
9265,507,550,519
9272,497,548,426
9280,495,552,587
9287,492,548,507
9296,567,550,564
9305,649,550,703
9312,706,548,570
9320,733,552,895
9328,590,548,494
9336,486,550,694
9345,481,551,579
9352,461,548,141
9360,437,552,334
9368,437,548,440
9376,461,550,481
9384,470,550,582
9392,479,548,143
9400,506,552,369
9407,486,549,368
9416,499,550,453
9424,492,550,519
9433,486,548,467
9440,503,552,796
9448,489,549,556
9456,523,550,389
9464,531,551,410
9473,503,548,459
9480,510,552,505
9488,506,548,393
9496,508,550,415
9504,516,551,522
9511,535,548,447
9521,546,553,653
9527,541,549,462
9536,598,550,471
9544,518,551,505
9552,517,549,414
9561,520,553,564
9568,499,549,535
9576,515,551,585
9584,530,551,523
9592,505,549,414
9601,501,553,570
9608,473,549,490
9616,488,551,486
9624,474,551,526
9631,496,549,532
9640,496,553,560
9649,474,549,413
9656,497,551,482
9664,474,551,564
9672,457,549,418
9680,477,553,650
9689,472,549,490
9696,489,551,548
9704,494,552,636
9712,498,549,318
9720,515,554,628
9729,525,549,327
9736,513,551,465
9744,499,552,490
9751,488,549,423
9760,484,554,708
9768,481,549,490
9776,499,551,545
9784,511,551,541
9792,529,550,341
9800,546,554,434
9808,488,549,423
9817,477,553,519
9824,483,552,572
9832,493,550,514
9840,498,554,706
9848,490,550,446
9857,513,552,483
9864,534,552,581
9871,522,550,387
9880,528,554,541
9888,508,550,367
9896,501,553,563
9905,504,551,521
9912,507,550,565
9920,512,554,697
9928,509,550,475
9936,515,553,442
9945,508,552,586
9952,491,550,362
9960,497,554,511
9968,494,550,407
9976,503,553,557
9985,493,552,601
9991,524,550,471
10000,514,554,570
10007,465,550,587
10016,492,553,394
10024,541,552,459
10032,607,550,406
10040,694,555,645
10048,700,550,461
10056,665,553,664
10064,554,552,496
10073,433,551,620
10080,428,555,615
10088,425,550,288
10096,462,553,366
10104,470,552,453
10112,483,551,436
10120,510,555,594
10127,506,551,486
10136,498,554,531
10144,466,552,614
10152,460,551,461
10161,493,555,645
10168,486,551,445
10176,512,554,608
10184,499,553,518
10192,534,551,396
10201,550,555,559
10208,499,551,466
10216,493,554,639
10224,489,553,533
10231,505,551,406
10241,517,555,611
10247,514,551,400
10256,530,554,570
10264,525,553,561
10272,540,552,487
10280,552,555,527
10288,536,551,383
10296,549,554,538
10304,526,553,616
10312,492,552,508
10320,503,555,610
10329,490,551,506
10336,502,554,644
10344,482,553,384
10351,488,552,304
10360,515,555,489
10368,528,551,402
10376,491,554,615
10384,465,553,575
10392,461,552,385
10400,483,555,607
10408,479,552,477
10417,502,555,484
10424,506,554,429
10432,526,552,437
10440,541,556,587
10448,499,552,413
10457,515,555,654
10464,464,554,550
10472,460,552,394
10480,497,556,567
10487,498,552,385
10497,512,556,507
10504,507,553,446
10512,521,552,458
10520,533,556,606
10528,503,552,484
10536,503,556,638
10544,496,554,592
10552,499,553,469
10560,516,556,763
10568,516,552,286
10576,550,556,430
10585,546,553,440
10592,524,553,425
10600,494,556,679
10607,476,552,426
10616,486,556,547
10625,490,553,498
10632,494,553,478
10640,507,556,674
10648,498,552,381
10656,524,556,570
10664,520,554,507
10673,503,554,507
10680,502,557,610
10688,490,552,468
10696,508,556,450
10704,567,554,538
10712,640,553,602
10720,703,557,523
10727,712,553,390
10736,602,556,583
10744,487,554,447
10753,449,554,450
10760,435,557,545
10768,430,553,409
10776,466,557,682
10784,465,554,589
10792,474,554,544
10800,496,557,504
10808,495,553,365
10816,503,556,557
10824,509,554,439
10831,505,554,455
10841,489,557,633
10847,471,553,460
10856,491,557,651
10864,496,554,514
10872,506,554,528
10881,524,556,528
10888,525,553,353
10896,538,557,554
10904,509,555,472
10912,518,555,508
10920,513,557,639
10929,513,553,451
10936,524,557,689
10944,526,555,518
10951,535,554,414
10960,546,557,539
10968,545,553,483
10976,539,557,739
10984,520,554,393
10992,502,555,392
11000,484,557,564
11009,482,553,476
11016,495,557,541
11024,487,555,454
11032,491,555,491
11040,502,557,678
11048,503,554,473
11056,501,557,498
11064,485,555,465
11072,476,555,426
11080,479,557,588
11087,485,554,360
11097,506,558,547
11104,489,555,490
11112,502,555,456
11120,505,557,586
11128,515,554,668
11137,527,558,469
11144,515,555,429
11152,506,555,491
11160,500,558,578
11168,492,554,526
11176,507,558,626
11185,491,555,305
11192,505,555,398
11200,532,558,635
11207,526,554,396
11216,526,558,555
11225,509,555,471
11232,517,555,543
11240,522,558,691
11248,494,554,447
11256,504,559,623
11265,493,555,433
11272,501,556,365
11280,504,558,540
11288,510,554,376
11296,533,559,638
11304,493,555,544
11312,482,556,641
11320,505,558,569
11327,493,555,206
11336,493,559,464
11343,484,556,399
11353,497,556,460
11360,520,558,633
11368,557,555,442
11376,637,559,671
11384,702,556,633
11393,700,557,593
11400,581,559,660
11408,477,555,274
11416,472,559,472
11424,459,555,404
11432,467,557,517
11441,475,558,593
11447,450,555,407
11456,477,559,585
11463,468,556,520
11472,487,557,525
11481,496,558,609
11488,497,555,471
11496,507,560,485
11504,517,556,485
11512,501,557,443
11521,501,558,545
11528,478,555,411
11536,508,559,694
11544,501,556,509
11552,515,557,445
11560,516,558,488
11567,516,555,464
11576,548,560,641
11583,537,556,430
11592,537,557,498
11600,514,558,588
11609,518,556,425
11616,531,560,774
11624,539,556,431
11632,539,558,382
11640,542,559,544
11649,540,556,441
11656,540,560,558
11664,486,556,500
11672,486,557,572
11680,472,559,670
11687,464,556,416
11697,483,560,496
11704,475,556,357
11712,483,558,432
11720,517,558,524
11728,512,556,424
11737,478,560,651
11744,462,557,586
11752,480,558,551
11760,491,559,640
11768,491,556,472
11777,509,560,534
11784,496,557,419
11792,505,558,356
11800,510,559,489
11807,501,556,415
11816,509,561,636
11825,505,556,528
11832,513,558,565
11840,517,559,638
11848,507,556,376
11856,543,561,656
11865,510,557,352
11872,492,558,446
11880,501,559,547
11888,492,556,485
11896,514,561,562
11905,515,557,410
11912,519,558,487
11920,515,559,675
11927,512,556,449
11936,528,561,579
11943,493,557,538
11953,490,559,507
11960,495,559,493
11968,484,557,413
11976,493,561,546
11984,492,557,402
11993,503,559,564
12000,502,560,643
12008,490,557,447
12016,489,561,635
12024,512,557,338
12033,580,559,512
12040,654,560,584
12047,711,557,447
12056,709,561,716
12064,553,557,379
12072,471,559,498
12081,436,559,492
12088,445,557,425
12096,488,561,548
12104,494,557,449
12112,483,560,568
12121,468,559,546
12128,466,557,467
12136,488,561,558
12144,476,557,422
12152,496,559,559
12161,500,559,507
12167,496,557,475
12176,511,562,621
12183,499,558,403
12192,508,560,597
12200,498,559,499
12208,504,557,399
12216,518,562,616
12224,506,558,437
12232,527,560,496
12240,541,560,500
12249,533,558,515
12256,532,562,640
12264,519,558,469
12272,535,560,552
12280,542,559,482
12288,524,558,442
12296,534,562,601
12303,521,558,562
12312,525,560,518
12320,516,560,487
12328,510,558,437
12337,495,562,613
12344,478,558,466
12352,499,560,493
12360,484,560,539
12368,472,558,517
12377,480,562,571
12384,472,558,469
12392,482,560,466
12400,483,560,476
12407,488,558,409
12417,512,562,576
12424,495,558,442
12432,500,560,525
12440,492,560,595
12448,497,558,478
12456,498,562,680
12464,484,558,637
12472,499,561,478
12480,497,560,476
12488,502,559,394
12496,510,562,522
12505,496,558,414
12512,511,560,456
12520,515,560,491
12527,503,558,432
12536,512,562,685
12544,509,558,473
12552,521,561,470
12560,504,560,493
12568,514,559,425
12576,523,562,573
12584,523,558,449
12593,525,562,608
12600,505,561,560
12608,498,559,453
12616,503,563,604
12624,491,558,456
12633,499,562,561
12640,497,560,530
12647,495,559,434
12656,514,563,601
12663,500,559,453
12673,503,562,700
12680,505,560,554
12688,500,559,429
12696,479,563,500
12704,481,559,397
12712,562,562,490
12720,635,561,506
12728,715,559,529
12736,740,563,694
12744,591,559,504
12752,489,562,514
12761,444,560,417
12767,450,559,356
12776,483,563,568
12783,469,559,426
12792,470,562,527
12801,492,560,482
12808,489,559,475
12816,475,563,618
12824,466,559,436
12832,491,562,506
12840,492,560,509
12849,493,560,455
12856,502,563,573
12864,514,559,446
12872,518,562,617
12880,497,560,552
12888,494,559,466
12896,504,563,529
12903,502,559,438
12912,516,562,584
12920,515,560,589
12929,524,560,282
12936,542,563,510
12944,546,559,399
12952,557,563,586
12960,526,561,578
12968,523,560,570
12976,525,563,636
12984,515,559,421
12992,527,562,477
13000,512,560,413
13007,513,560,565
13017,523,563,494
13024,502,559,320
13032,483,562,519
13040,471,560,558
13048,472,560,489
13057,475,563,589
13064,476,559,476
13072,494,563,524
13080,490,561,472
13088,502,560,435
13096,508,563,526
13105,496,559,391
13112,503,563,552
13120,489,561,543
13127,495,560,520
13136,508,563,665
13145,506,559,391
13152,525,563,515
13160,500,561,519
13168,505,560,441
13176,500,563,486
13185,484,559,539
13192,498,563,539
13200,495,561,442
13208,501,561,558
13216,515,563,492
13224,524,559,334
13232,533,563,549
13240,510,561,512
13247,496,560,464
13256,489,563,612
13263,492,559,579
13273,510,564,628
13280,508,561,401
13288,525,560,363
13296,546,563,521
13304,508,559,407
13313,514,564,623
13320,504,561,544
13328,479,561,535
13336,490,564,786
13344,488,560,459
13352,513,564,558
13361,520,561,354
13367,526,560,360
13376,496,563,559
13383,456,560,444
13392,491,564,588
13401,461,560,612
13408,462,561,524
13416,521,563,489
13424,619,560,315
13432,731,564,583
13441,774,561,533
13448,651,561,463
13456,487,564,588
13464,415,560,458
13472,444,564,597
13480,455,561,464
13487,465,561,464
13496,485,564,616
13503,479,560,344
13512,479,564,614
13520,472,561,586
13529,471,561,505
13536,477,564,519
13544,479,560,408
13552,490,564,539
13560,490,561,436
13569,505,562,493
13576,521,564,581
13584,505,560,419
13592,496,564,616
13600,482,561,533
13607,502,561,569
13617,515,563,505
13623,508,560,337
13632,538,564,518
13640,534,561,494
13648,545,562,476
13657,538,563,600
13664,514,560,453
13672,515,564,635
13680,514,561,551
13688,523,562,591
13697,519,564,528
13704,508,560,345
13712,523,564,463
13720,502,561,412
13727,491,562,449
13736,483,563,646
13743,462,560,649
13752,479,564,495
13760,473,561,452
13768,476,562,485
13776,487,563,477
13785,503,560,358
13792,505,565,590
13800,489,562,475
13808,482,562,519
13816,481,564,602
13825,483,561,527
13832,500,564,588
13840,500,561,405
13848,504,562,434
13856,507,564,505
13863,499,561,420
13873,512,565,590
13880,489,561,480
13888,498,562,520
13896,502,564,667
13904,492,561,440
13913,507,565,591
13920,501,562,519
13928,513,562,466
13936,525,564,498
13944,503,561,410
13953,518,565,582
13960,518,562,473
13968,516,562,471
13976,510,564,580
13983,501,561,503
13992,506,565,626
14001,488,561,445
14008,499,562,468
14016,505,564,582
14024,497,561,433
14032,504,565,630
14041,481,561,471
14048,492,563,513
14056,497,564,515
14064,493,561,377
14072,496,565,544
14081,475,561,444
14088,502,562,463
14096,590,564,571
14103,664,561,456
14112,739,566,653
14119,671,562,508
14129,537,563,563
14136,461,564,624
14144,435,561,385
14152,460,566,519
14160,464,562,401
14169,481,564,506
14176,480,564,571
14184,471,561,441
14192,486,566,601
14200,474,562,493
14209,485,563,542
14216,487,564,623
14224,485,561,537
14232,500,566,600
14239,491,562,354
14248,503,564,453
14257,500,563,505
14264,499,561,403
14272,511,566,593
14280,504,562,457
14288,516,564,541
14297,514,564,577
14304,514,561,470
14312,532,566,604
14320,522,562,532
14328,531,564,572
14337,530,564,532
14344,527,561,368
14352,537,566,535
14359,522,562,435
14368,524,564,503
14375,516,564,560
14385,502,562,482
14392,506,566,633
14400,489,562,436
14408,494,564,524
14416,488,564,491
14425,484,562,450
14432,494,566,621
14440,484,562,355
14448,492,564,433
14456,489,564,536
14465,488,562,434
14472,502,566,584
14480,492,562,460
14488,503,564,534
14495,502,565,633
14504,499,562,384
14513,509,566,595
14520,499,562,442
14528,511,565,418
14536,506,564,495
14544,503,562,445
14553,511,566,592
14560,499,562,463
14568,504,564,597
14576,501,564,561
14584,498,562,377
14593,506,566,566
14600,498,562,551
14608,511,565,494
14615,513,565,509
14624,511,562,416
14631,521,567,582
14641,516,562,523
14648,530,565,526
14656,521,565,539
14664,509,563,418
14672,509,567,596
14681,491,562,466
14688,500,565,564
14696,496,565,549
14704,492,563,492
14712,501,567,611
14721,496,563,421
14728,505,565,526
14735,504,565,506
14744,501,563,428
14751,502,567,615
14760,473,563,461
14769,501,566,519
14776,562,565,555
14784,664,563,539
14792,748,567,592
14800,708,562,477
14809,576,565,584
14816,470,565,576
14824,438,563,409
14832,463,567,542
14840,467,563,397
14849,480,566,527
14855,478,565,540
14864,475,563,457
14871,491,567,615
14880,482,562,479
14888,496,566,601
14896,493,565,635
14904,492,563,456
14912,505,567,567
14920,496,562,392
14928,510,566,495
14937,503,564,479
14944,503,563,441
14952,518,567,600
14960,510,562,437
14968,525,566,617
14976,522,564,590
14984,521,563,436
14991,534,567,593
15000,527,563,432
15008,540,566,539
15016,534,564,497
15025,533,563,452
15032,541,567,598
15040,528,563,442
15048,535,566,555
15056,521,564,559
15065,511,563,410
15072,512,567,580
15080,494,563,511
15088,497,566,505
15095,488,565,503
15105,485,563,425
15112,494,567,565
15120,483,563,409
15128,495,566,532
15136,489,565,511
15144,492,564,463
15152,502,567,652
15160,495,563,470
15168,506,566,535
15176,501,564,488
15184,502,563,406
15193,509,567,581
15200,498,563,415
15208,510,566,527
15215,506,565,495
15224,504,564,444
15232,511,567,584
15240,501,563,452
15248,510,566,587
15256,504,565,555
15264,505,564,468
15272,511,567,692
15281,504,563,389
15288,519,566,495
15296,517,565,463
15304,517,564,398
15312,524,567,571
15321,519,563,440
15328,530,566,553
15336,518,565,546
15344,509,564,477
15351,506,567,585
15361,490,563,501
15368,502,567,597
15376,495,565,479
15384,495,564,425
15392,501,567,560
15400,493,563,468
15408,505,566,554
15416,500,565,458
15424,498,564,403
15432,491,567,550
15440,473,563,422
15449,523,567,553
15456,593,565,531
15464,688,564,488
15471,749,567,632
15480,650,563,418
15488,528,567,528
15496,448,565,523
15504,439,564,450
15512,465,567,564
15520,467,563,433
15528,483,567,575
15537,474,564,495
15544,478,564,468
15552,488,567,604
15560,482,563,461
15568,497,567,594
15577,490,565,500
15584,495,564,473
15592,504,568,556
15600,496,564,421
15607,509,567,574
15617,502,565,500
15624,508,565,463
15632,518,568,623
15640,511,563,422
15648,524,568,511
15656,517,565,449
15664,524,564,434
15672,534,568,593
15680,526,564,503
15688,540,568,549
15696,533,565,476
15705,535,565,489
15712,538,568,593
15720,526,564,451
15727,532,567,571
15736,513,565,490
15745,509,566,486
15752,506,568,610
15760,488,564,390
15768,495,568,501
15776,481,565,495
15784,484,565,520
15793,488,567,501
15800,480,564,369
15808,494,568,557
15816,487,565,505
15824,492,565,510
15832,498,568,522
15840,491,564,408
15847,502,568,557
15856,494,565,468
15864,501,566,468
15873,504,568,561
15880,496,564,432
15888,509,568,556
