TimeStamp,ECG Data,GSR Data
20,502,65524
26,481,65524
33,459,65524
40,489,65524
46,521,65524
53,544,65524
60,531,65524
66,522,65524
73,539,65524
80,529,65524
87,521,65524
93,491,65524
99,425,65524
106,438,65524
113,509,65524
120,556,65524
126,588,65524
133,590,65524
140,559,65524
146,538,65524
153,508,65524
160,500,65524
166,509,65524
173,503,65524
180,500,65524
186,475,65524
193,488,65524
200,488,65524
206,501,65524
214,496,65524
220,500,65524
226,493,65524
233,492,65524
240,492,65524
245,520,65524
253,544,65524
261,518,65524
266,492,65524
273,488,65524
280,481,65524
286,433,65524
293,446,65524
301,498,65524
306,505,65524
313,519,65524
320,543,65524
326,513,65524
332,499,65524
340,533,65524
346,530,65524
353,508,65524
360,489,65524
366,495,65524
373,493,65524
380,502,65524
387,450,65524
393,500,65524
400,569,65524
406,549,65524
413,522,65524
420,514,65524
427,520,65524
433,504,65524
440,488,65524
446,447,65524
453,372,65524
460,286,65524
466,298,65524
474,422,65524
480,490,65524
486,566,65524
493,581,65524
500,582,65524
505,571,65524
514,541,65524
520,521,65524
526,529,65524
533,524,65524
540,517,65524
546,525,65524
553,507,65524
560,475,65524
566,435,65524
573,474,65524
580,530,65524
586,523,65524
592,514,65524
601,520,65524
606,535,65524
613,540,65524
620,525,65524
626,513,65524
633,477,65524
641,453,65524
646,456,65524
653,495,65524
660,468,65524
666,465,65524
673,491,65524
680,508,65524
687,532,65524
692,522,65524
700,530,65524
706,515,65524
713,494,65524
720,467,65524
727,461,65524
733,450,65524
740,446,65524
746,377,65524
753,367,65524
760,553,65524
766,617,65524
773,607,65524
779,608,65524
786,592,65524
793,570,65524
800,549,65524
806,525,65524
814,510,65524
820,519,65524
826,522,65524
833,523,65524
840,496,65524
846,459,65524
854,439,65524
860,487,65524
865,555,65524
873,607,65524
880,613,65524
886,590,65524
893,569,65524
900,546,65524
906,527,65524
913,515,65524
920,507,65524
926,506,65524
933,485,65524
941,481,65524
946,482,65524
953,458,65524
960,428,65524
966,501,65524
973,583,65524
980,603,65524
986,585,65524
993,561,65524
1000,537,65524
1006,524,65524
1013,510,65524
1020,499,65524
1027,505,65524
1033,503,65524
1040,483,65524
1046,467,65524
1052,451,65524
1060,496,65524
1067,517,65524
1073,538,65524
1080,544,65524
1086,557,65524
1093,548,65524
1100,537,65524
1106,523,65524
1114,497,65524
1120,486,65524
1126,499,65524
1133,489,65524
1139,493,65524
1146,490,65524
1154,425,65524
1160,385,65524
1166,479,65524
1173,559,65524
1180,652,65524
1186,631,65524
1193,555,65524
1200,541,65524
1206,480,65524
1213,442,65524
1220,535,65524
1225,568,65524
1233,441,65524
1241,379,65524
1246,468,65524
1253,688,65524
1260,682,65524
1266,604,65524
1273,551,65524
1281,530,65524
1286,531,65524
1293,449,65524
1300,493,65524
1306,555,65524
1313,546,65524
1320,510,65524
1327,506,65524
1333,463,65524
1340,411,65524
1346,466,65524
1353,483,65524
1360,547,65524
1367,557,65524
1373,528,65524
1380,519,65524
1386,512,65524
1393,469,65524
1400,477,65524
1406,450,65524
1412,469,65524
1420,477,65524
1426,545,65524
1433,584,65524
1440,576,65524
1446,558,65524
1454,525,65524
1460,502,65524
1466,471,65524
1473,415,65524
1480,494,65524
1486,574,65524
1494,579,65524
1499,557,65524
1506,521,65524
1513,485,65524
1520,453,65524
1526,386,65524
1533,401,65524
1541,536,65524
1546,578,65524
1553,577,65524
1560,563,65524
1566,549,65524
1573,534,65524
1581,526,65524
1586,519,65524
1593,447,65524
1599,424,65524
1606,416,65524
1613,440,65524
1620,562,65524
1626,635,65524
1633,618,65524
1640,573,65524
1646,548,65524
1653,522,65524
1660,518,65524
1667,502,65524
1673,472,65524
1680,376,65524
1685,329,65524
1693,313,65524
1700,367,65524
1707,449,65524
1713,566,65524
1720,587,65524
1726,583,65524
1733,547,65524
1740,548,65524
1746,539,65524
1754,526,65524
1760,524,65524
1766,521,65524
1772,515,65524
1780,477,65524
1786,415,65524
1794,401,65524
1800,528,65524
1806,580,65524
1813,600,65524
1820,588,65524
1826,564,65524
1833,540,65524
1840,520,65524
1846,520,65524
1853,497,65524
1859,457,65524
1866,411,65524
1873,451,65524
1881,504,65524
1886,547,65524
1893,548,65524
1900,531,65524
1906,510,65524
1913,499,65524
1921,487,65524
1926,454,65524
1933,431,65524
1940,423,65524
1945,431,65524
1953,475,65524
1960,502,65524
1966,517,65524
1973,525,65524
1980,518,65524
1986,504,65524
1993,490,65524
2000,453,65524
2007,461,65524
2013,539,65524
2020,547,65524
2026,530,65524
2032,493,65524
2040,531,65524
2046,582,65524
2053,578,65524
2060,477,65524
2066,499,65524
2073,589,65524
2080,580,65524
2086,561,65524
2094,540,65524
2100,515,65524
2106,530,65524
2113,504,65524
2119,440,65524
2126,515,65524
2134,609,65524
2140,598,65524
2146,536,65524
2153,480,65524
2160,531,65524
2166,563,65524
2173,555,65524
2180,540,65524
2186,526,65524
2193,513,65524
2200,524,65524
2206,514,65524
2213,503,65524
2220,509,65524
2226,468,65524
2233,442,65524
2240,533,65524
2246,546,65524
2253,493,65524
2260,471,65524
2266,418,65524
2273,492,65524
2280,646,65524
2286,593,65524
2293,580,65524
2300,581,65524
2306,553,65524
2313,527,65524
2320,525,65524
2326,515,65524
2333,505,65524
2340,489,65524
2347,487,65524
2353,474,65524
2360,453,65524
2366,463,65524
2373,463,65524
2380,520,65524
2386,580,65524
2393,585,65524
2400,571,65524
2406,553,65524
2413,534,65524
2420,523,65524
2426,518,65524
2434,479,65524
2440,463,65524
2446,480,65524
2453,475,65524
2460,455,65524
2466,524,65524
2473,487,65524
2480,478,65524
2486,557,65524
2492,557,65524
2500,531,65524
2506,475,65524
2513,464,65524
2521,562,65524
2526,575,65524
2533,550,65524
2540,525,65524
2546,512,65524
2553,508,65524
2561,516,65524
2566,514,65524
2573,494,65524
2579,458,65524
2586,411,65524
2593,473,65524
2600,560,65524
2607,537,65524
2613,550,65524
2620,544,65524
2626,540,65524
2633,550,65524
2640,549,65524
2647,533,65524
2653,522,65524
2660,516,65524
2666,513,65524
2673,501,65524
2679,484,65524
2686,469,65524
2693,467,65524
2700,455,65524
2706,465,65524
2713,516,65524
2720,518,65524
2726,527,65524
2734,521,65524
2740,525,65524
2746,553,65524
2753,544,65524
2760,525,65524
2765,522,65524
2774,514,65524
2780,506,65524
2786,500,65524
2793,486,65524
2800,482,65524
2806,452,65524
2813,433,65524
2821,512,65524
2826,551,65524
2833,537,65524
2840,531,65524
2846,510,65524
2853,491,65524
2861,424,65524
2866,408,65524
2873,390,65524
2880,377,65524
2886,425,65524
2893,464,65524
2900,532,65524
2906,590,65524
2913,595,65524
2920,583,65524
2926,562,65524
2933,537,65524
2940,531,65524
2947,513,65524
2952,485,65524
2960,430,65524
2966,435,65524
2973,545,65524
2980,579,65524
2987,576,65524
2993,561,65524
3000,558,65524
3006,544,65524
3013,522,65524
3020,519,65524
3026,507,65524
3034,486,65524
3039,452,65524
3046,467,65524
3053,524,65524
3060,484,65524
3066,428,65524
3074,495,65524
3080,560,65524
3086,547,65524
3093,490,65524
3100,493,65524
3106,500,65524
3113,490,65524
3120,452,65524
3125,448,65524
3133,478,65524
3140,504,65524
3146,503,65524
3153,491,65524
3161,491,65524
3166,494,65524
3173,500,65524
3180,516,65524
3186,478,65524
3193,406,65524
3201,464,65524
3206,560,65524
3212,595,65524
3220,549,65524
3226,564,65524
3233,591,65524
3240,584,65524
3246,574,65524
3253,565,65524
3260,551,65524
3266,534,65524
3273,514,65524
3280,502,65524
3287,507,65524
3293,502,65524
3300,503,65524
3306,511,65524
3312,519,65524
3320,546,65524
3326,549,65524
3333,543,65524
3340,529,65524
3346,476,65524
3353,445,65524
3360,517,65524
3366,566,65524
3374,580,65524
3380,549,65524
3386,528,65524
3393,515,65524
3400,505,65524
3406,510,65524
3412,506,65524
3420,501,65524
3426,501,65524
3433,491,65524
3440,464,65524
3446,445,65524
3453,460,65524
3460,505,65524
3466,516,65524
3473,455,65524
3480,485,65524
3486,551,65524
3493,556,65524
3500,539,65524
3506,526,65524
3512,491,65524
3520,462,65524
3526,495,65524
3533,501,65524
3540,461,65524
3546,504,65524
3553,573,65524
3560,580,65524
3566,560,65524
3573,523,65524
3580,487,65524
3587,489,65524
3593,503,65524
3599,511,65524
3606,519,65524
3613,417,65524
3620,397,65524
3627,506,65524
3633,548,65524
3640,583,65524
3646,573,65524
3653,526,65524
3660,505,65524
3666,513,65524
3674,501,65524
3680,489,65524
3686,469,65524
3693,466,65524
3699,491,65524
3706,458,65524
3714,401,65524
3720,448,65524
3726,542,65524
3733,573,65524
3740,568,65524
3746,563,65524
3753,535,65524
3760,520,65524
3766,506,65524
3773,477,65524
3780,465,65524
3785,504,65524
3793,524,65524
3801,505,65524
3806,489,65524
3813,486,65524
3820,494,65524
3826,466,65524
3833,380,65524
3841,381,65524
3846,403,65524
3853,430,65524
3860,525,65524
3866,569,65524
3873,550,65524
3880,532,65524
3885,532,65524
3893,526,65524
3900,510,65524
3906,491,65524
3913,490,65524
3920,530,65524
3927,576,65524
3933,575,65524
3940,560,65524
3946,543,65524
3953,457,65524
3960,446,65524
3966,517,65524
3973,549,65524
3980,563,65524
3985,539,65524
3993,525,65524
4000,536,65524
4006,521,65524
4014,500,65524
4020,484,65524
4026,443,65524
4033,438,65524
4040,452,65524
4046,475,65524
4054,540,65524
4060,564,65524
4066,545,65524
4073,515,65524
4080,488,65524
4086,451,65524
4093,447,65524
4101,480,65524
4106,486,65524
4113,444,65524
4120,382,65524
4126,406,65524
4133,522,65524
4141,565,65524
4146,577,65524
4153,556,65524
4160,548,65524
4166,550,65524
4172,535,65524
4180,554,65524
4186,551,65524
4193,523,65524
4200,503,65524
4206,469,65524
4213,484,65524
4220,531,65524
4227,570,65524
4233,579,65524
4240,575,65524
4246,559,65524
4253,517,65524
4259,526,65524
4267,538,65524
4273,539,65524
4280,515,65524
4286,498,65524
4293,448,65524
4300,450,65524
4306,503,65524
4314,593,65524
4320,603,65524
4326,571,65524
4333,566,65524
4340,537,65524
4346,519,65524
4354,486,65524
4359,497,65524
4366,497,65524
4373,460,65524
4380,424,65524
4386,431,65524
4393,494,65524
4400,536,65524
4406,532,65524
4413,562,65524
4420,558,65524
4426,532,65524
4433,525,65524
4441,534,65524
4446,526,65524
4453,494,65524
4460,466,65524
4466,472,65524
4473,464,65524
4481,452,65524
4486,471,65524
4493,540,65524
4500,556,65524
4506,558,65524
4513,555,65524
4520,549,65524
4527,527,65524
4532,513,65524
4540,494,65524
4546,473,65524
4553,441,65524
4560,453,65524
4567,457,65524
4573,453,65524
4580,511,65524
4586,551,65524
4593,572,65524
4600,560,65524
4606,552,65524
4613,526,65524
4619,504,65524
4626,502,65524
4633,493,65524
4640,474,65524
4646,444,65524
4654,448,65524
4660,511,65524
4666,542,65524
4673,503,65524
4680,488,65524
4686,530,65524
4692,552,65524
4700,535,65524
4706,516,65524
4713,513,65524
4720,513,65524
4726,494,65524
4733,477,65524
4740,477,65524
4746,457,65524
4753,510,65524
4760,525,65524
4766,488,65524
4773,486,65524
4780,522,65524
4786,552,65524
4792,558,65524
4800,525,65524
4806,518,65524
4813,510,65524
4820,496,65524
4826,484,65524
4833,458,65524
4840,414,65524
4846,398,65524
4853,449,65524
4860,542,65524
4867,565,65524
4873,564,65524
4879,561,65524
4886,546,65524
4893,523,65524
4900,526,65524
4907,529,65524
4913,507,65524
4920,507,65524
4926,502,65524
4933,473,65524
4940,431,65524
4946,428,65524
4954,483,65524
4960,526,65524
4965,577,65524
4973,586,65524
4980,563,65524
4986,544,65524
4994,527,65524
5000,521,65524
5006,515,65524
5013,498,65524
5020,474,65524
5026,437,65524
5033,291,65524
5040,248,65524
5046,307,65524
5053,491,65524
5060,628,65524
5066,589,65524
5073,557,65524
5081,592,65524
5086,630,65524
5093,595,65524
5100,565,65524
5106,541,65524
5113,526,65524
5121,506,65524
5126,451,65524
5133,454,65524
5140,529,65524
5146,541,65524
5152,500,65524
5160,520,65524
5167,562,65524
5173,567,65524
5180,549,65524
5186,516,65524
5193,478,65524
5200,525,65524
5207,537,65524
5213,509,65524
5220,473,65524
5226,462,65524
5233,444,65524
5239,513,65524
5246,545,65524
5253,502,65524
5260,477,65524
5266,465,65524
5273,448,65524
5280,494,65524
5286,494,65524
5294,419,65524
5300,362,65524
5306,433,65524
5313,510,65524
5320,556,65524
5325,559,65524
5334,508,65524
5340,474,65524
5346,445,65524
5353,513,65524
5360,598,65524
5366,592,65524
5373,568,65524
5381,549,65524
5386,530,65524
5393,528,65524
5400,529,65524
5406,534,65524
5412,528,65524
5421,536,65524
5426,514,65524
5433,476,65524
5440,484,65524
5446,521,65524
5453,564,65524
5460,548,65524
5466,520,65524
5473,494,65524
5480,522,65524
5486,530,65524
5493,520,65524
5500,538,65524
5507,546,65524
5513,534,65524
5520,516,65524
5526,513,65524
5533,523,65524
5540,515,65524
5547,456,65524
5553,424,65524
5560,494,65524
5566,530,65524
5573,565,65524
5580,576,65524
5586,552,65524
5594,549,65524
5600,539,65524
5606,525,65524
5613,498,65524
5620,473,65524
5626,446,65524
5634,489,65524
5640,558,65524
5646,578,65524
5653,515,65524
5659,493,65524
5666,524,65524
5673,524,65524
5680,510,65524
5686,513,65524
5693,518,65524
5700,504,65524
5706,503,65524
5713,497,65524
5721,497,65524
5726,496,65524
5733,495,65524
5740,499,65524
5746,504,65524
5753,507,65524
5760,505,65524
5766,496,65524
5773,496,65524
5780,500,65524
5786,502,65524
5793,510,65524
5800,514,65524
5806,508,65524
5813,502,65524
5820,501,65524
5826,499,65524
5833,494,65524
5840,498,65524
5846,501,65524
5853,491,65524
5860,497,65524
5866,505,65524
5873,480,65524
5880,487,65524
5886,487,65524
5893,489,65524
5900,503,65524
5906,510,65524
5913,496,65524
5920,502,65524
5926,497,65524
5933,510,65524
5940,508,65524
5946,496,65524
5953,510,65524
5960,509,65524
5966,514,65524
5974,535,65524
5980,531,65524
5986,529,65524
5993,522,65524
6000,525,65524
6006,533,65524
6013,523,65524
6020,530,65524
6026,534,65524
6032,526,65524
6040,537,65524
6046,541,65524
6053,542,65524
6061,538,65524
6066,550,65524
6073,541,65524
6080,554,65524
6086,558,65524
6093,552,65524
6100,548,65524
6106,551,65524
6113,549,65524
6119,534,65524
6126,525,65524
6133,535,65524
6140,547,65524
6147,537,65524
6153,540,65524
6160,537,65524
6166,530,65524
6173,495,65524
6180,508,65524
6187,532,65524
6193,524,65524
6200,507,65524
6206,457,65524
6213,410,65524
6220,405,65524
6226,387,65524
6234,448,65524
6240,517,65524
6246,526,65524
6253,539,65524
6260,549,65524
6266,550,65524
6274,555,65524
6280,567,65524
6286,572,65524
6292,535,65524
6300,529,65524
6306,531,65524
6313,521,65524
6320,520,65524
6326,526,65524
6333,515,65524
6340,497,65524
6346,503,65524
6353,515,65524
6361,496,65524
6366,485,65524
6373,558,65524
6379,608,65524
6386,525,65524
6393,467,65524
6401,444,65524
6406,451,65524
6413,505,65524
6420,530,65524
6426,582,65524
6433,546,65524
6440,481,65524
6447,558,65524
6453,501,65524
6460,485,65524
6466,432,65524
6473,434,65524
6480,428,65524
6487,442,65524
6493,473,65524
6500,454,65524
6506,479,65524
6513,521,65524
6520,539,65524
6526,463,65524
6533,463,65524
6539,489,65524
6546,512,65524
6553,511,65524
6560,488,65524
6566,498,65524
6574,533,65524
6580,540,65524
6586,556,65524
6593,563,65524
6600,556,65524
6606,555,65524
6614,506,65524
6620,495,65524
6625,485,65524
6633,516,65524
6640,524,65524
6646,545,65524
6653,535,65524
6660,528,65524
6666,485,65524
6673,518,65524
6680,567,65524
6686,506,65524
6693,456,65524
6701,439,65524
6706,458,65524
6713,486,65524
6720,471,65524
6725,491,65524
6733,525,65524
6740,518,65524
6746,556,65524
6753,509,65524
6760,464,65524
6766,470,65524
6773,488,65524
6780,469,65524
6787,501,65524
6793,493,65524
6800,462,65524
6806,488,65524
6813,506,65524
6820,575,65524
6825,509,65524
6833,493,65524
6840,481,65524
6846,549,65524
6853,517,65524
6860,506,65524
6866,439,65524
6874,421,65524
6880,543,65524
6886,537,65524
6893,470,65524
6900,562,65524
6906,541,65524
6913,516,65524
6920,505,65524
6926,618,65524
6933,583,65524
6940,509,65524
6946,481,65524
6953,430,65524
6960,516,65524
6966,500,65524
6973,361,65524
6980,543,65524
6986,513,65524
6993,460,65524
7000,453,65524
7006,530,65524
7012,487,65524
7020,461,65524
7026,490,65524
7033,561,65524
7041,526,65524
7046,519,65524
7053,508,65524
7060,556,65524
7066,469,65524
7073,435,65524
7080,399,65524
7086,380,65524
7093,315,65524
7100,434,65524
7106,499,65524
7113,512,65524
7120,563,65524
7127,622,65524
7133,541,65524
7140,544,65524
7146,536,65524
7153,496,65524
7160,505,65524
7166,495,65524
7173,533,65524
7180,554,65524
7186,580,65524
7193,505,65524
7200,517,65524
7206,467,65524
7214,498,65524
7220,510,65524
7226,538,65524
7233,508,65524
7240,461,65524
7246,472,65524
7254,502,65524
7259,477,65524
7266,479,65524
7272,517,65524
7280,519,65524
7286,535,65524
7293,481,65524
7301,481,65524
7306,501,65524
7313,491,65524
7320,470,65524
7326,462,65524
7333,462,65524
7341,475,65524
7346,483,65524
7353,477,65524
7360,478,65524
7366,484,65524
7373,489,65524
7380,508,65524
7386,508,65524
7393,516,65524
7400,522,65524
7406,539,65524
7413,567,65524
7420,552,65524
7427,539,65524
7433,538,65524
7440,563,65524
7445,556,65524
7453,550,65524
7460,586,65524
7467,544,65524
7473,525,65524
7480,532,65524
7486,545,65524
7493,556,65524
7500,524,65524
7506,506,65524
7514,504,65524
7520,523,65524
7526,534,65524
7533,514,65524
7540,533,65524
7546,557,65524
7554,538,65524
7560,521,65524
7566,509,65524
7573,528,65524
7580,528,65524
7586,515,65524
7593,515,65524
7600,489,65524
7606,430,65524
7613,420,65524
7620,364,65524
7626,456,65524
7633,608,65524
7641,644,65524
7646,605,65524
7653,568,65524
7660,535,65524
7666,523,65524
7673,425,65524
7681,362,65524
7686,383,65524
7693,530,65524
7700,632,65524
7706,617,65524
7713,584,65524
7720,561,65524
7727,535,65524
7733,525,65524
7740,511,65524
7746,498,65524
7753,501,65524
7760,502,65524
7767,470,65524
7773,457,65524
7780,452,65524
7786,463,65524
7793,445,65524
7800,380,65524
7806,432,65524
7813,505,65524
7820,413,65524
7826,310,65524
7832,389,65524
7840,556,65524
7846,655,65524
7854,651,65524
7860,618,65524
7866,597,65524
7873,553,65524
7880,528,65524
7886,499,65524
7894,495,65524
7900,491,65524
7906,482,65524
7913,479,65524
7920,475,65524
7926,475,65524
7932,474,65524
7941,492,65524
7946,484,65524
7953,473,65524
7960,478,65524
7966,472,65524
7973,484,65524
7981,491,65524
7986,484,65524
7993,492,65524
8000,512,65524
8006,512,65524
8013,492,65524
8019,472,65524
8026,474,65524
8033,484,65524
8040,489,65524
8046,496,65524
8053,501,65524
8060,483,65524
8067,438,65524
8073,389,65524
8080,352,65524
8086,374,65524
8093,429,65524
8100,440,65524
8107,494,65524
8113,560,65524
8119,548,65524
8126,546,65524
8133,481,65524
8140,425,65524
8146,546,65524
8154,599,65524
8160,560,65524
8166,562,65524
8173,553,65524
8180,479,65524
8186,525,65524
8194,611,65524
8200,529,65524
8206,399,65524
8213,566,65524
8220,640,65524
8226,578,65524
8233,555,65524
8240,521,65524
8246,513,65524
8253,508,65524
8260,528,65524
8266,515,65524
8273,485,65524
8281,486,65524
8286,489,65524
8293,480,65524
8300,475,65524
8305,465,65524
8313,454,65524
8321,456,65524
8326,456,65524
8333,452,65524
8340,465,65524
8346,463,65524
8353,461,65524
8360,475,65524
8366,492,65524
8373,489,65524
8380,497,65524
8386,507,65524
8392,528,65524
8400,527,65524
8407,529,65524
8413,529,65524
8420,525,65524
8426,538,65524
8433,562,65524
8440,557,65524
8446,547,65524
8453,543,65524
8460,557,65524
8466,553,65524
8473,538,65524
8480,505,65524
8486,365,65524
8493,436,65524
8500,633,65524
8506,644,65524
8513,616,65524
8520,578,65524
8526,558,65524
8534,541,65524
8540,521,65524
8546,515,65524
8553,525,65524
8560,531,65524
8566,527,65524
8573,531,65524
8581,534,65524
8586,516,65524
8593,514,65524
8600,522,65524
8606,508,65524
8613,500,65524
8621,522,65524
8626,496,65524
8633,483,65524
8640,504,65524
8646,512,65524
8652,568,65524
8660,569,65524
8666,550,65524
8673,529,65524
8680,523,65524
8686,524,65524
8693,519,65524
8700,517,65524
8707,494,65524
8713,482,65524
8720,499,65524
8726,514,65524
8733,499,65524
8739,509,65524
8747,559,65524
8753,552,65524
8760,540,65524
8766,527,65524
8773,533,65524
8780,523,65524
8786,519,65524
8794,483,65524
8800,490,65524
8806,514,65524
8813,512,65524
8820,507,65524
8826,527,65524
8834,521,65524
8840,517,65524
8846,505,65524
8853,510,65524
8860,501,65524
8866,489,65524
8873,519,65524
8880,538,65524
8886,543,65524
8893,540,65524
8900,478,65524
8906,467,65524
8912,488,65524
8921,493,65524
8926,495,65524
8933,520,65524
8940,548,65524
8946,536,65524
8953,536,65524
8961,542,65524
8966,533,65524
8973,486,65524
8980,450,65524
8986,478,65524
8993,537,65524
8999,538,65524
9007,488,65524
9013,462,65524
9020,423,65524
9026,379,65524
9033,355,65524
9040,411,65524
9047,482,65524
9053,527,65524
9060,524,65524
9066,534,65524
9073,535,65524
9080,522,65524
9086,530,65524
9093,533,65524
9099,532,65524
9106,541,65524
9113,542,65524
9120,538,65524
9126,557,65524
9134,568,65524
9140,536,65524
9146,509,65524
9153,494,65524
9160,496,65524
9166,516,65524
9174,519,65524
9180,504,65524
9185,531,65524
9193,540,65524
9200,504,65524
9206,493,65524
9213,527,65524
9220,510,65524
9226,469,65524
9233,472,65524
9240,474,65524
9246,481,65524
9253,468,65524
9261,471,65524
9266,479,65524
9272,482,65524
9280,480,65524
9286,495,65524
9293,505,65524
9300,471,65524
9306,482,65524
9313,491,65524
9320,482,65524
9326,488,65524
9333,503,65524
9340,513,65524
9347,523,65524
9353,531,65524
9360,528,65524
9366,548,65524
9372,587,65524
9380,555,65524
9387,532,65524
9393,520,65524
9400,514,65524
9406,523,65524
9413,528,65524
9420,531,65524
9426,520,65524
9434,524,65524
9440,530,65524
9446,527,65524
9453,538,65524
9460,530,65524
9466,523,65524
9473,506,65524
9480,511,65524
9486,508,65524
9493,511,65524
9500,509,65524
9506,510,65524
9513,516,65524
9520,518,65524
9526,512,65524
9533,527,65524
9540,539,65524
9546,519,65524
9553,510,65524
9560,503,65524
9566,490,65524
9572,502,65524
9580,510,65524
9586,506,65524
9593,504,65524
9601,505,65524
9606,512,65524
9613,523,65524
9620,503,65524
9626,490,65524
9633,516,65524
9640,523,65524
9646,512,65524
9653,503,65524
9659,506,65524
9666,501,65524
9673,506,65524
9680,508,65524
9687,507,65524
9693,505,65524
9700,495,65524
9706,506,65524
9713,520,65524
9720,505,65524
9726,502,65524
9733,493,65524
9740,496,65524
9746,496,65524
9753,505,65524
9760,510,65524
9766,511,65524
9774,519,65524
9780,523,65524
9786,513,65524
9793,518,65524
9800,508,65524
9806,501,65524
9814,500,65524
9820,500,65524
9826,508,65524
9833,527,65524
9840,524,65524
9845,512,65524
9853,525,65524
9861,532,65524
9866,526,65524
9873,493,65524
9880,430,65524
9886,389,65524
9893,386,65524
9901,434,65524
9906,479,65524
9913,524,65524
9920,542,65524
9926,541,65524
9933,539,65524
9940,547,65524
9945,545,65524
9953,528,65524
9960,532,65524
9966,515,65524
9973,523,65524
9980,515,65524
9987,503,65524
9993,520,65524
10000,520,65524
10006,513,65524
10013,518,65524
10020,520,65524
10027,515,65524
10033,513,65524
10040,527,65524
10045,518,65524
10053,498,65524
10060,507,65524
10066,500,65524
10074,496,65524
10080,503,65524
10086,499,65524
10093,503,65524
10100,502,65524
10106,508,65524
10114,510,65524
10120,486,65524
10126,454,65524
10132,466,65524
10140,509,65524
10146,495,65524
10153,503,65524
10160,499,65524
10166,501,65524
10173,499,65524
10180,493,65524
10186,504,65524
10193,517,65524
10201,553,65524
10206,559,65524
10213,535,65524
10220,530,65524
10226,533,65524
10232,534,65524
10241,534,65524
10246,535,65524
10253,520,65524
10260,537,65524
10266,560,65524
10273,570,65524
10280,528,65524
10287,497,65524
10293,502,65524
10300,508,65524
10306,509,65524
10313,517,65524
10319,515,65524
10327,507,65524
10332,515,65524
10340,511,65524
10346,506,65524
10353,510,65524
10360,520,65524
10366,518,65524
10373,512,65524
10380,509,65524
10386,509,65524
10393,519,65524
10400,512,65524
10406,508,65524
10414,510,65524
10419,509,65524
10426,502,65524
10433,502,65524
10440,523,65524
10446,528,65524
10454,530,65524
10460,500,65524
10466,485,65524
10473,507,65524
10480,505,65524
10486,506,65524
10493,512,65524
10501,504,65524
10506,498,65524
10513,502,65524
10519,510,65524
10526,512,65524
10533,500,65524
10541,495,65524
10546,504,65524
10553,528,65524
10560,504,65524
10566,491,65524
10573,493,65524
10580,500,65524
10586,493,65524
10593,495,65524
10600,492,65524
10606,481,65524
10613,487,65524
10620,495,65524
10627,497,65524
10633,506,65524
10640,515,65524
10646,514,65524
10653,536,65524
10660,503,65524
10667,489,65524
10673,492,65524
10680,500,65524
10686,501,65524
10693,518,65524
10700,517,65524
10705,520,65524
10714,524,65524
10720,514,65524
10726,514,65524
10733,506,65524
10740,505,65524
10746,478,65524
10754,450,65524
10760,412,65524
10766,395,65524
10773,424,65524
10780,472,65524
10786,492,65524
10793,512,65524
10800,533,65524
10806,530,65524
10813,545,65524
10819,547,65524
10826,533,65524
10833,538,65524
10841,533,65524
10846,522,65524
10853,517,65524
10860,528,65524
10866,525,65524
10873,518,65524
10881,506,65524
10886,498,65524
10893,506,65524
10900,523,65524
10905,521,65524
10913,510,65524
10920,526,65524
10926,527,65524
10933,520,65524
10940,508,65524
10946,499,65524
10953,501,65524
10960,494,65524
10967,490,65524
10973,492,65524
10980,487,65524
10986,478,65524
10993,480,65524
11000,501,65524
11005,498,65524
11013,497,65524
11019,491,65524
11026,482,65524
11033,487,65524
11040,496,65524
11046,497,65524
11054,500,65524
11060,491,65524
11066,493,65524
11073,502,65524
11080,506,65524
11086,519,65524
11094,535,65524
11100,533,65524
11105,530,65524
11113,534,65524
11120,528,65524
11126,525,65524
11133,526,65524
11140,528,65524
11146,518,65524
11153,508,65524
11160,521,65524
11166,522,65524
11173,524,65524
11181,520,65524
11186,511,65524
11192,507,65524
11200,513,65524
11206,512,65524
11213,515,65524
11220,511,65524
11226,514,65524
11233,515,65524
11240,517,65524
11246,518,65524
11253,517,65524
11260,514,65524
11267,513,65524
11273,519,65524
11280,515,65524
11286,512,65524
11292,518,65524
11300,508,65524
11307,509,65524
11313,513,65524
11320,509,65524
11326,505,65524
11333,512,65524
11340,517,65524
11346,501,65524
11354,502,65524
11360,507,65524
11366,508,65524
11373,508,65524
11380,512,65524
11386,511,65524
11393,510,65524
11400,503,65524
11406,505,65524
11413,500,65524
11420,509,65524
11426,518,65524
11433,509,65524
11440,499,65524
11446,502,65524
11453,521,65524
11460,507,65524
11466,489,65524
11473,501,65524
11480,508,65524
11486,509,65524
11492,512,65524
11500,503,65524
11506,500,65524
11513,505,65524
11521,504,65524
11526,501,65524
11533,506,65524
11540,502,65524
11546,503,65524
11553,507,65524
11560,499,65524
11566,492,65524
11573,503,65524
11579,504,65524
11586,494,65524
11592,494,65524
11600,507,65524
11607,507,65524
11613,512,65524
11620,517,65524
11626,521,65524
11633,517,65524
11640,506,65524
11646,503,65524
11653,516,65524
11660,520,65524
11666,517,65524
11673,498,65524
11679,508,65524
11686,508,65524
11694,516,65524
11700,515,65524
11706,511,65524
11713,520,65524
11720,507,65524
11726,489,65524
11734,478,65524
11740,450,65524
11746,394,65524
11753,367,65524
11760,410,65524
11765,454,65524
11773,501,65524
11781,531,65524
11786,536,65524
11793,545,65524
11800,545,65524
11806,539,65524
11813,545,65524
11821,532,65524
11826,531,65524
11833,532,65524
11840,528,65524
11846,522,65524
11852,523,65524
11860,518,65524
11866,518,65524
11873,522,65524
11880,524,65524
11886,517,65524
11893,515,65524
11900,522,65524
11907,506,65524
11913,498,65524
11920,499,65524
11926,502,65524
11933,506,65524
11939,502,65524
11947,505,65524
11952,503,65524
11960,498,65524
11966,487,65524
11973,492,65524
11980,495,65524
11986,484,65524
11994,485,65524
12000,488,65524
12006,482,65524
12013,476,65524
12020,473,65524
12026,475,65524
12034,479,65524
12039,484,65524
12046,503,65524
12053,512,65524
12060,516,65524
12066,521,65524
12073,538,65524
12080,542,65524
12086,537,65524
12093,535,65524
12100,533,65524
12106,537,65524
12113,535,65524
12121,529,65524
12126,529,65524
12133,527,65524
12139,527,65524
12146,521,65524
12153,515,65524
12161,518,65524
12166,521,65524
12173,532,65524
12180,533,65524
12186,527,65524
12193,524,65524
12200,515,65524
12207,515,65524
12213,519,65524
12220,514,65524
12225,512,65524
12233,517,65524
12240,506,65524
12247,507,65524
12253,516,65524
12260,519,65524
12266,520,65524
12273,514,65524
12280,517,65524
12286,511,65524
12293,506,65524
12300,511,65524
12306,513,65524
12312,520,65524
12320,513,65524
12326,512,65524
12334,512,65524
12340,513,65524
12346,510,65524
12353,516,65524
12360,511,65524
12366,506,65524
12374,502,65524
12380,509,65524
12386,514,65524
12393,518,65524
12400,507,65524
12406,510,65524
12412,512,65524
12421,508,65524
12426,500,65524
12433,506,65524
12440,519,65524
12446,508,65524
12453,506,65524
12461,499,65524
12466,499,65524
12473,505,65524
12480,504,65524
12486,507,65524
12493,509,65524
12499,510,65524
12506,510,65524
12512,507,65524
12520,503,65524
12526,490,65524
12533,497,65524
12540,502,65524
12547,506,65524
12553,511,65524
12560,504,65524
12566,505,65524
12573,509,65524
12580,503,65524
12587,500,65524
12593,505,65524
12599,511,65524
12606,521,65524
12613,519,65524
12620,508,65524
12626,503,65524
12634,506,65524
12640,496,65524
12646,506,65524
12653,523,65524
12660,507,65524
12666,501,65524
12674,505,65524
12680,502,65524
12686,510,65524
12693,511,65524
12699,509,65524
12706,512,65524
12713,520,65524
12720,504,65524
12726,503,65524
12733,510,65524
12740,509,65524
12746,504,65524
12753,506,65524
12761,501,65524
12766,496,65524
12773,496,65524
12780,498,65524
12786,499,65524
12793,499,65524
12800,508,65524
12806,505,65524
12813,505,65524
12820,508,65524
12826,513,65524
12833,515,65524
12840,518,65524
12846,515,65524
12853,521,65524
12860,520,65524
12866,511,65524
12873,509,65524
12880,512,65524
12887,508,65524
12893,504,65524
12899,509,65524
12906,512,65524
12913,524,65524
12920,524,65524
12926,506,65524
12933,482,65524
12940,438,65524
12946,394,65524
12953,366,65524
12960,399,65524
12966,453,65524
12974,507,65524
12980,535,65524
12985,536,65524
12993,543,65524
13000,548,65524
13006,538,65524
13014,539,65524
13020,533,65524
13026,529,65524
13033,540,65524
13040,531,65524
13046,526,65524
13053,524,65524
13060,522,65524
13066,508,65524
13073,517,65524
13080,525,65524
13085,515,65524
13093,519,65524
13101,520,65524
13106,514,65524
13113,511,65524
13120,514,65524
13126,505,65524
13133,502,65524
13140,500,65524
13146,499,65524
13153,501,65524
13160,490,65524
13166,485,65524
13173,490,65524
13180,491,65524
13186,488,65524
13193,484,65524
13200,478,65524
13206,478,65524
13213,488,65524
13220,485,65524
13227,484,65524
13233,489,65524
13240,492,65524
13246,490,65524
13253,513,65524
13260,522,65524
13266,532,65524
13274,538,65524
13280,521,65524
13285,524,65524
13293,539,65524
13300,536,65524
13306,536,65524
13314,543,65524
13320,541,65524
13326,536,65524
13333,535,65524
13340,533,65524
13346,530,65524
13353,529,65524
13360,528,65524
13366,529,65524
13373,537,65524
13380,537,65524
13386,534,65524
13393,528,65524
13401,521,65524
13406,520,65524
13413,520,65524
13420,511,65524
13426,513,65524
13433,513,65524
13441,503,65524
13446,501,65524
13453,503,65524
13460,512,65524
13466,516,65524
13472,521,65524
13480,516,65524
13487,515,65524
13493,516,65524
13500,508,65524
13506,510,65524
13513,519,65524
13520,511,65524
13527,502,65524
13533,493,65524
13540,496,65524
13546,500,65524
13553,505,65524
13559,507,65524
13566,511,65524
13572,517,65524
13580,515,65524
13586,510,65524
13593,508,65524
13600,508,65524
13606,507,65524
13614,502,65524
13620,506,65524
13626,501,65524
13633,496,65524
13640,506,65524
13646,512,65524
13654,515,65524
13659,516,65524
13666,512,65524
13673,504,65524
13680,506,65524
13686,507,65524
13693,509,65524
13701,505,65524
13706,501,65524
13713,506,65524
13720,513,65524
13726,512,65524
13733,511,65524
13741,511,65524
13746,514,65524
13753,520,65524
13759,520,65524
13766,504,65524
13773,502,65524
13780,498,65524
13786,498,65524
13793,504,65524
13800,512,65524
13806,506,65524
13813,513,65524
13820,504,65524
13827,506,65524
13833,508,65524
13840,505,65524
13846,503,65524
13853,504,65524
13859,503,65524
13867,501,65524
13873,507,65524
13880,505,65524
13886,510,65524
13893,511,65524
13900,506,65524
13906,508,65524
13914,508,65524
13920,505,65524
13926,506,65524
13933,507,65524
13940,507,65524
13946,510,65524
13954,504,65524
13960,503,65524
13966,506,65524
13972,494,65524
13980,493,65524
13986,493,65524
13993,507,65524
14000,506,65524
14006,506,65524
14013,512,65524
14020,500,65524
14026,493,65524
14033,494,65524
14041,491,65524
14046,482,65524
14053,500,65524
14060,500,65524
14066,506,65524
14072,506,65524
14081,513,65524
14086,514,65524
14093,523,65524
14100,513,65524
14106,503,65524
14113,506,65524
14120,509,65524
14127,511,65524
14133,508,65524
14140,516,65524
14146,516,65524
14153,521,65524
14160,507,65524
14167,512,65524
14172,516,65524
14180,504,65524
14186,474,65524
14193,429,65524
14200,369,65524
14206,342,65524
14213,373,65524
14220,453,65524
14226,512,65524
14233,538,65524
14240,539,65524
14246,536,65524
14254,547,65524
14259,550,65524
14266,554,65524
14272,540,65524
14280,524,65524
14286,525,65524
14294,524,65524
14300,531,65524
14306,531,65524
14313,534,65524
14320,527,65524
14326,527,65524
14333,528,65524
14341,522,65524
14346,524,65524
14353,521,65524
14359,509,65524
14366,507,65524
14372,516,65524
14381,511,65524
14386,510,65524
14393,514,65524
14400,507,65524
14406,504,65524
14413,509,65524
14420,498,65524
14426,492,65524
14433,496,65524
14440,489,65524
14446,487,65524
14453,489,65524
14459,485,65524
14467,482,65524
14473,482,65524
14480,476,65524
14486,488,65524
14493,496,65524
14500,501,65524
14507,510,65524
14513,523,65524
14520,525,65524
14526,534,65524
14533,540,65524
14540,547,65524
14546,543,65524
14554,548,65524
14560,546,65524
14566,552,65524
14572,556,65524
14580,546,65524
14586,540,65524
14594,555,65524
14600,545,65524
14606,542,65524
14613,545,65524
14620,538,65524
14626,534,65524
14633,532,65524
14640,519,65524
14646,519,65524
14653,529,65524
14659,534,65524
14666,517,65524
14673,517,65524
14681,523,65524
14686,534,65524
14693,512,65524
14700,527,65524
14706,524,65524
14713,514,65524
14721,507,65524
14726,507,65524
14733,520,65524
14740,506,65524
14746,510,65524
14753,517,65524
14759,505,65524
14767,528,65524
14773,524,65524
14780,514,65524
14786,514,65524
14793,511,65524
14800,510,65524
14807,511,65524
14813,514,65524
14820,498,65524
14826,504,65524
14833,512,65524
14840,517,65524
14846,515,65524
14853,508,65524
14859,513,65524
14866,515,65524
14873,503,65524
14880,505,65524
14886,509,65524
14894,499,65524
14900,498,65524
14906,492,65524
14913,497,65524
14920,503,65524
14926,532,65524
14934,519,65524
14940,508,65524
14946,507,65524
14953,515,65524
14959,504,65524
14966,497,65524
14973,515,65524
14980,508,65524
14986,497,65524
14993,465,65524
15000,524,65524
15006,543,65524
15013,525,65524
15021,533,65524
15026,552,65524
15033,519,65524
15040,465,65524
15046,484,65524
15053,513,65524
15059,465,65524
15066,462,65524
15072,497,65524
15080,516,65524
15086,543,65524
15093,586,65524
15100,551,65524
15107,513,65524
15113,505,65524
15120,495,65524
15126,482,65524
15133,509,65524
15140,466,65524
15147,545,65524
15153,553,65524
15159,529,65524
15166,485,65524
15173,507,65524
15180,450,65524
15186,467,65524
15194,502,65524
15200,521,65524
15206,484,65524
15213,485,65524
15220,466,65524
15226,529,65524
15234,548,65524
15240,564,65524
15246,514,65524
15253,504,65524
15259,492,65524
15266,470,65524
15273,494,65524
15280,580,65524
15286,509,65524
15293,478,65524
15300,468,65524
15306,520,65524
15313,506,65524
15321,537,65524
15326,523,65524
15333,510,65524
15340,468,65524
15346,473,65524
15353,459,65524
15360,366,65524
15366,431,65524
15373,397,65524
15380,466,65524
15386,512,65524
15393,570,65524
15400,559,65524
15406,548,65524
15413,539,65524
15420,538,65524
15426,542,65524
15433,571,65524
15440,517,65524
15446,509,65524
15453,494,65524
15459,493,65524
15466,474,65524
15473,509,65524
15480,493,65524
15486,580,65524
15493,628,65524
15500,567,65524
15506,521,65524
15513,504,65524
15520,484,65524
15526,480,65524
15534,432,65524
15540,500,65524
15545,530,65524
15553,551,65524
15560,541,65524
15566,518,65524
15574,490,65524
15580,464,65524
15586,474,65524
15593,472,65524
15600,489,65524
15606,498,65524
15613,484,65524
15620,504,65524
15626,514,65524
15633,497,65524
15640,452,65524
15645,439,65524
15653,462,65524
15661,460,65524
15666,509,65524
15673,516,65524
15680,554,65524
15686,550,65524
15693,552,65524
15700,538,65524
15706,537,65524
15713,512,65524
15720,521,65524
15726,570,65524
15733,555,65524
15740,585,65524
15747,551,65524
15753,533,65524
15760,548,65524
15766,539,65524
15773,491,65524
15780,533,65524
15787,542,65524
15793,568,65524
15800,541,65524
15806,522,65524
15813,505,65524
15820,493,65524
15826,521,65524
15833,493,65524
15840,469,65524
15846,517,65524
15853,560,65524
15860,552,65524
15866,550,65524
15874,488,65524
15880,481,65524
15886,481,65524
15893,487,65524
15900,489,65524
15906,481,65524
15913,524,65524
15920,557,65524
15926,498,65524
15932,476,65524
15940,515,65524
15946,518,65524
15953,538,65524
15961,488,65524
15966,502,65524
15973,547,65524
15980,484,65524
15986,481,65524
15993,540,65524
16001,538,65524
16006,499,65524
16013,479,65524
16020,532,65524
16026,496,65524
16032,459,65524
16040,470,65524
16047,499,65524
16053,505,65524
16060,488,65524
16066,517,65524
16073,526,65524
16080,520,65524
16087,490,65524
16093,506,65524
16100,587,65524
16106,494,65524
16113,448,65524
16119,506,65524
16126,517,65524
16132,498,65524
16140,416,65524
16146,509,65524
16153,529,65524
16160,513,65524
16166,459,65524
16174,475,65524
16180,516,65524
16186,488,65524
16193,506,65524
16200,545,65524
16206,504,65524
16214,465,65524
16220,518,65524
16226,550,65524
16232,484,65524
16240,539,65524
16246,512,65524
16253,495,65524
16261,486,65524
16266,491,65524
16273,531,65524
16280,518,65524
16286,482,65524
16293,517,65524
16301,507,65524
16306,513,65524
16313,467,65524
16319,398,65524
16326,369,65524
16332,392,65524
16340,435,65524
16346,501,65524
16353,551,65524
16360,543,65524
16366,544,65524
16373,548,65524
16380,528,65524
16387,538,65524
16393,537,65524
16400,539,65524
16406,539,65524
16413,535,65524
16419,523,65524
16427,530,65524
16433,522,65524
16440,528,65524
16446,523,65524
16453,537,65524
16460,530,65524
16466,517,65524
16474,467,65524
16480,441,65524
16486,422,65524
16493,375,65524
16500,604,65524
16505,646,65524
16514,610,65524
16520,570,65524
16526,555,65524
16533,535,65524
16540,533,65524
16546,529,65524
16553,517,65524
16560,502,65524
16566,470,65524
16573,498,65524
16580,516,65524
16586,522,65524
16593,522,65524
16601,513,65524
16605,515,65524
16613,517,65524
16620,495,65524
16626,474,65524
16633,474,65524
16641,491,65524
16646,500,65524
16653,498,65524
16660,526,65524
16666,532,65524
16673,519,65524
16680,499,65524
16687,492,65524
16693,500,65524
16700,506,65524
16705,510,65524
16713,497,65524
16720,476,65524
16727,369,65524
16733,347,65524
16740,554,65524
16746,629,65524
16753,613,65524
16760,582,65524
16766,552,65524
16773,507,65524
16780,503,65524
16786,550,65524
16793,568,65524
16800,535,65524
16806,535,65524
16814,523,65524
16820,513,65524
16826,532,65524
16833,539,65524
16840,521,65524
16846,508,65524
16854,484,65524
16860,491,65524
16866,507,65524
16873,492,65524
16880,480,65524
16886,522,65524
16892,525,65524
16901,509,65524
16906,507,65524
16913,471,65524
16920,483,65524
16926,466,65524
16933,494,65524
16941,538,65524
16946,510,65524
16953,503,65524
16960,470,65524
16966,523,65524
16973,513,65524
16979,446,65524
16986,477,65524
16992,475,65524
17000,492,65524
17006,429,65524
17013,510,65524
17020,525,65524
17027,532,65524
17033,466,65524
17040,449,65524
17046,509,65524
17053,514,65524
17060,508,65524
17067,436,65524
17073,482,65524
17079,509,65524
17086,536,65524
17093,526,65524
17100,491,65524
17106,423,65524
17114,435,65524
17120,543,65524
17126,527,65524
17133,510,65524
17140,434,65524
17146,488,65524
17154,436,65524
17160,459,65524
17166,465,65524
17173,473,65524
17179,438,65524
17186,444,65524
17192,452,65524
17200,479,65524
17206,557,65524
17213,537,65524
17220,504,65524
17226,493,65524
17233,514,65524
17241,415,65524
17246,452,65524
17253,498,65524
17260,559,65524
17266,568,65524
17273,535,65524
17280,524,65524
17286,509,65524
17292,484,65524
17300,456,65524
17306,436,65524
17313,383,65524
17320,398,65524
17326,417,65524
17333,470,65524
17340,529,65524
17346,534,65524
17353,561,65524
17360,541,65524
17367,550,65524
17373,546,65524
17379,541,65524
17386,530,65524
17393,533,65524
17400,480,65524
17406,550,65524
17413,566,65524
17420,563,65524
17426,548,65524
17433,533,65524
17440,524,65524
17446,523,65524
17454,521,65524
17460,513,65524
17466,505,65524
17473,476,65524
17479,525,65524
17486,563,65524
17494,579,65524
17500,559,65524
17506,527,65524
17513,514,65524
17520,513,65524
17526,521,65524
17533,529,65524
17540,522,65524
17546,506,65524
17553,526,65524
17560,542,65524
17565,539,65524
17573,507,65524
17581,497,65524
17586,504,65524
17593,501,65524
17600,504,65524
17606,510,65524
17613,493,65524
17620,528,65524
17626,552,65524
17633,562,65524
17640,557,65524
17646,557,65524
17653,559,65524
17660,556,65524
17666,558,65524
17673,553,65524
17680,541,65524
17686,549,65524
17693,551,65524
17700,531,65524
17707,543,65524
17713,557,65524
17720,556,65524
17726,554,65524
17733,551,65524
17740,534,65524
17746,525,65524
17753,518,65524
17760,416,65524
17766,440,65524
17773,578,65524
17780,670,65524
17786,668,65524
17794,638,65524
17800,606,65524
17806,584,65524
17813,571,65524
17820,564,65524
17826,564,65524
17833,573,65524
17840,564,65524
17846,564,65524
17852,560,65524
17860,550,65524
17866,529,65524
17873,510,65524
17881,485,65524
17886,484,65524
17893,486,65524
17900,475,65524
17906,482,65524
17913,474,65524
17921,467,65524
17926,472,65524
17933,480,65524
17939,470,65524
17946,469,65524
17953,453,65524
17960,468,65524
17967,491,65524
17973,496,65524
17980,494,65524
17986,498,65524
17993,499,65524
18000,494,65524
18007,500,65524
18013,499,65524
18020,495,65524
18025,501,65524
18033,502,65524
18040,516,65524
18046,516,65524
18053,503,65524
18060,496,65524
18066,493,65524
18073,494,65524
18080,497,65524
18086,481,65524
18094,483,65524
18100,502,65524
18106,505,65524
18113,487,65524
18120,481,65524
18125,492,65524
18134,504,65524
18140,503,65524
18146,500,65524
18153,500,65524
18160,498,65524
18166,523,65524
18173,519,65524
18181,473,65524
18186,472,65524
18193,499,65524
18200,519,65524
18206,506,65524
18213,496,65524
18221,489,65524
18226,487,65524
18233,483,65524
18239,445,65524
18246,396,65524
18253,364,65524
18260,410,65524
18266,492,65524
18273,570,65524
18280,535,65524
18286,497,65524
18293,475,65524
18300,498,65524
18307,517,65524
18313,524,65524
18320,541,65524
18325,550,65524
18333,547,65524
18340,533,65524
18347,544,65524
18353,536,65524
18360,506,65524
18366,510,65524
18373,501,65524
18380,510,65524
18386,530,65524
18394,490,65524
18400,476,65524
18406,480,65524
18413,482,65524
18420,482,65524
18425,490,65524
18434,488,65524
18440,482,65524
18446,487,65524
18453,502,65524
18460,509,65524
18466,460,65524
18473,443,65524
18480,445,65524
18486,460,65524
18493,480,65524
18500,473,65524
18506,494,65524
18513,505,65524
18521,467,65524
18525,465,65524
18533,464,65524
18540,500,65524
18546,473,65524
18553,460,65524
18561,471,65524
18566,487,65524
18573,514,65524
18580,511,65524
18586,518,65524
18593,524,65524
18600,523,65524
18607,540,65524
18612,554,65524
18620,532,65524
18626,502,65524
18633,528,65524
18640,555,65524
18647,564,65524
18653,554,65524
18660,502,65524
18666,465,65524
18673,474,65524
18680,477,65524
18686,494,65524
18693,490,65524
18700,510,65524
18706,527,65524
18712,562,65524
18720,528,65524
18726,526,65524
18734,536,65524
18740,488,65524
18746,494,65524
18753,562,65524
18760,532,65524
18766,513,65524
18774,492,65524
18780,532,65524
18786,559,65524
18793,537,65524
18800,508,65524
18806,487,65524
18812,488,65524
18821,498,65524
18826,527,65524
18833,512,65524
18840,503,65524
18846,493,65524
18853,512,65524
18861,509,65524
18866,534,65524
18873,572,65524
18880,519,65524
18886,499,65524
18893,492,65524
18900,509,65524
18906,512,65524
18912,525,65524
18920,488,65524
18926,500,65524
18933,485,65524
18940,537,65524
18947,531,65524
18953,534,65524
18960,507,65524
18966,500,65524
18973,480,65524
18980,500,65524
18987,529,65524
18993,543,65524
18999,506,65524
19006,486,65524
19012,516,65524
19020,552,65524
19026,587,65524
19034,498,65524
19040,491,65524
19046,504,65524
19053,512,65524
19060,538,65524
19066,544,65524
19074,514,65524
19080,490,65524
19086,508,65524
19093,483,65524
19099,436,65524
19106,383,65524
19113,370,65524
19120,447,65524
19126,522,65524
19133,535,65524
19140,534,65524
19146,537,65524
19153,544,65524
19161,548,65524
19166,534,65524
19173,550,65524
19180,536,65524
19185,517,65524
19193,500,65524
19201,502,65524
19206,501,65524
19213,529,65524
19220,518,65524
19226,511,65524
19233,506,65524
19240,529,65524
19246,533,65524
19253,528,65524
19260,526,65524
19266,490,65524
19273,499,65524
19280,491,65524
19286,485,65524
19293,484,65524
19300,503,65524
19306,530,65524
19313,487,65524
19320,465,65524
19326,477,65524
19333,481,65524
19340,466,65524
19346,485,65524
19353,451,65524
19360,495,65524
19366,551,65524
19374,490,65524
19380,490,65524
19385,492,65524
19393,522,65524
19400,495,65524
19406,493,65524
19414,519,65524
19420,524,65524
19426,522,65524
19433,549,65524
19440,554,65524
19446,549,65524
19453,560,65524
19460,575,65524
19466,574,65524
19472,516,65524
19480,516,65524
19486,542,65524
19493,511,65524
19501,540,65524
19506,551,65524
19513,544,65524
19520,543,65524
19526,542,65524
19533,543,65524
19540,508,65524
19546,510,65524
19553,523,65524
19560,516,65524
19566,530,65524
19572,527,65524
19580,522,65524
19587,522,65524
19593,509,65524
19600,529,65524
19606,506,65524
19613,512,65524
19620,504,65524
19627,519,65524
19633,515,65524
19640,506,65524
19646,518,65524
19653,534,65524
19659,527,65524
19666,484,65524
19674,506,65524
19680,481,65524
19686,518,65524
19693,559,65524
19700,525,65524
19706,514,65524
19714,474,65524
19720,488,65524
19726,529,65524
19733,515,65524
19740,473,65524
19746,453,65524
19753,495,65524
19760,541,65524
19766,534,65524
19773,502,65524
19780,509,65524
19786,554,65524
19793,515,65524
19801,507,65524
19806,497,65524
19813,477,65524
19820,483,65524
19826,500,65524
19833,497,65524
19841,507,65524
19845,517,65524
19853,524,65524
19860,480,65524
19866,479,65524
19873,469,65524
19880,501,65524
19887,514,65524
19893,527,65524
19900,514,65524
19906,505,65524
19913,500,65524
19920,512,65524
19927,516,65524
19933,503,65524
19940,503,65524
19945,510,65524
19953,506,65524
19960,489,65524
19966,530,65524
19973,530,65524
19980,516,65524
19986,521,65524
19993,503,65524
20000,505,65524
20006,523,65524
20014,513,65524
20020,496,65524
20026,480,65524
20033,412,65524
20040,331,65524
20046,395,65524
20054,428,65524
20060,496,65524
20066,530,65524
20073,557,65524
20080,521,65524
20086,525,65524
20093,530,65524
20101,528,65524
20106,537,65524
20113,539,65524
20120,526,65524
20126,521,65524
20132,518,65524
20141,543,65524
20146,550,65524
20153,537,65524
20160,517,65524
20166,499,65524
20173,498,65524
20180,487,65524
20186,511,65524
20193,524,65524
20200,537,65524
20206,517,65524
20213,478,65524
20220,512,65524
20227,521,65524
20232,503,65524
20240,486,65524
20246,476,65524
20253,484,65524
20260,466,65524
20267,487,65524
20273,497,65524
20280,478,65524
20286,465,65524
20293,469,65524
20300,505,65524
20306,483,65524
20314,497,65524
20320,482,65524
20326,495,65524
20332,489,65524
20340,491,65524
20346,509,65524
20354,521,65524
20360,522,65524
20366,532,65524
20373,548,65524
20380,525,65524
20386,535,65524
20393,514,65524
20400,526,65524
20406,544,65524
20413,542,65524
20420,549,65524
20426,522,65524
20433,532,65524
20441,519,65524
20446,541,65524
20453,541,65524
20460,521,65524
20466,505,65524
20473,526,65524
20481,494,65524
20486,489,65524
20493,511,65524
20500,523,65524
20506,514,65524
20513,528,65524
20520,531,65524
20527,535,65524
20532,532,65524
20540,519,65524
20546,471,65524
20553,462,65524
20560,566,65524
20567,570,65524
20573,486,65524
20580,470,65524
20586,506,65524
20593,504,65524
20600,498,65524
20606,509,65524
20613,504,65524
20620,515,65524
20626,535,65524
20632,542,65524
20640,494,65524
20646,495,65524
20654,496,65524
20660,492,65524
20666,490,65524
20673,488,65524
20680,477,65524
20686,516,65524
20694,497,65524
20700,495,65524
20706,520,65524
20713,530,65524
20720,541,65524
20726,489,65524
20732,447,65524
20741,473,65524
20746,514,65524
20753,515,65524
20760,499,65524
20766,480,65524
20773,490,65524
20781,512,65524
20786,510,65524
20793,537,65524
20800,505,65524
20806,463,65524
20813,464,65524
20819,481,65524
20826,493,65524
20832,518,65524
20840,502,65524
20846,501,65524
20853,494,65524
20860,481,65524
20867,496,65524
20873,503,65524
20880,502,65524
20886,504,65524
20893,511,65524
20900,521,65524
20907,515,65524
20913,540,65524
20920,533,65524
20926,517,65524
20932,540,65524
20940,548,65524
20946,499,65524
20954,500,65524
20960,517,65524
20966,525,65524
20973,526,65524
20980,532,65524
20986,544,65524
20994,526,65524
21000,520,65524
21006,523,65524
21013,533,65524
21019,525,65524
21026,500,65524
21033,437,65524
21040,395,65524
21046,394,65524
21053,425,65524
21060,504,65524
21066,528,65524
21073,538,65524
21081,529,65524
21086,538,65524
21093,562,65524
21100,565,65524
21106,553,65524
21113,547,65524
21120,526,65524
21126,533,65524
21133,561,65524
21140,554,65524
21146,552,65524
21153,528,65524
21160,518,65524
21166,533,65524
21173,538,65524
21180,530,65524
21186,521,65524
21193,514,65524
21200,489,65524
21206,481,65524
21213,496,65524
21220,505,65524
21226,512,65524
21233,508,65524
21240,499,65524
21246,492,65524
21253,480,65524
21260,478,65524
21266,480,65524
21273,489,65524
21280,488,65524
21286,477,65524
21294,469,65524
21300,467,65524
21305,485,65524
21313,485,65524
21320,482,65524
21326,506,65524
21334,453,65524
21340,447,65524
21346,462,65524
21353,515,65524
21360,542,65524
21366,540,65524
21373,552,65524
21380,588,65524
21386,612,65524
21393,593,65524
21400,574,65524
21406,580,65524
21413,586,65524
21421,580,65524
21426,570,65524
21433,549,65524
21440,551,65524
21446,559,65524
21453,537,65524
21460,520,65524
21466,509,65524
21473,519,65524
21480,523,65524
21486,521,65524
21492,511,65524
21500,503,65524
21507,507,65524
21513,506,65524
21520,503,65524
21526,499,65524
21533,524,65524
21540,516,65524
21547,510,65524
21553,518,65524
21560,522,65524
21566,524,65524
21573,523,65524
21579,527,65524
21586,524,65524
21594,517,65524
21600,514,65524
21606,502,65524
21613,486,65524
21620,484,65524
21626,504,65524
21634,520,65524
21640,529,65524
21646,535,65524
21653,544,65524
21660,535,65524
21665,524,65524
21673,495,65524
21680,479,65524
21686,493,65524
21693,506,65524
21700,504,65524
21706,504,65524
21713,509,65524
21721,520,65524
21726,513,65524
21733,494,65524
21740,492,65524
21746,495,65524
21752,494,65524
21761,491,65524
21766,480,65524
21773,481,65524
21780,489,65524
21786,479,65524
21793,474,65524
21800,502,65524
21807,516,65524
21813,499,65524
21820,492,65524
21826,493,65524
21833,489,65524
21839,488,65524
21847,488,65524
21852,484,65524
21860,464,65524
21866,474,65524
21873,485,65524
21880,502,65524
21886,497,65524
21893,496,65524
21900,499,65524
21906,502,65524
21913,488,65524
21920,479,65524
21926,490,65524
21934,497,65524
21940,502,65524
21946,496,65524
21953,462,65524
21960,474,65524
21966,497,65524
21974,503,65524
21980,515,65524
21986,514,65524
21993,509,65524
22000,507,65524
22006,510,65524
22013,505,65524
22021,504,65524
22026,508,65524
22033,504,65524
22039,502,65524
22046,499,65524
22053,516,65524
22061,505,65524
22066,506,65524
22073,503,65524
22080,482,65524
22086,454,65524
22093,399,65524
22100,371,65524
22106,389,65524
22113,451,65524
22120,516,65524
22126,533,65524
22133,528,65524
22139,538,65524
22147,538,65524
22153,527,65524
22160,535,65524
22166,538,65524
22173,541,65524
22180,548,65524
22187,540,65524
22193,532,65524
22200,527,65524
22206,517,65524
22213,505,65524
22220,507,65524
22225,509,65524
22234,501,65524
22240,493,65524
22246,508,65524
22253,507,65524
22260,510,65524
22266,523,65524
22274,517,65524
22280,509,65524
22286,507,65524
22293,502,65524
22300,494,65524
22306,496,65524
22313,494,65524
22320,482,65524
22325,471,65524
22333,470,65524
22340,487,65524
22346,487,65524
22353,478,65524
22361,483,65524
22366,487,65524
22373,495,65524
22380,496,65524
22386,498,65524
22393,497,65524
22401,504,65524
22406,510,65524
22413,513,65524
22420,539,65524
22426,538,65524
22433,537,65524
22440,542,65524
22446,542,65524
22453,538,65524
22460,545,65524
22466,535,65524
22473,528,65524
22480,526,65524
22487,539,65524
22493,548,65524
22500,531,65524
22506,530,65524
22512,523,65524
22520,527,65524
22526,528,65524
22533,524,65524
22540,523,65524
22546,526,65524
22553,522,65524
22560,523,65524
22566,527,65524
22574,523,65524
22580,523,65524
22586,526,65524
22593,530,65524
22599,519,65524
22606,507,65524
22614,507,65524
22620,514,65524
22626,515,65524
22633,516,65524
22640,520,65524
22646,510,65524
22653,513,65524
22660,524,65524
22666,521,65524
22673,515,65524
22680,514,65524
22686,516,65524
22693,514,65524
22700,512,65524
22706,509,65524
22713,512,65524
22720,521,65524
22726,518,65524
22733,506,65524
22740,508,65524
22746,510,65524
22753,509,65524
22760,516,65524
22766,509,65524
22773,496,65524
22780,505,65524
22786,513,65524
22793,515,65524
22800,516,65524
22806,517,65524
22813,495,65524
22820,481,65524
22827,366,65524
22833,296,65524
22840,427,65524
22846,560,65524
22853,623,65524
22860,651,65524
22866,640,65524
22874,601,65524
22880,564,65524
22885,535,65524
22893,483,65524
22900,311,65524
22906,228,65524
22914,367,65524
22920,518,65524
22926,483,65524
22933,553,65524
22940,674,65524
22946,674,65524
22953,640,65524
22960,623,65524
22966,614,65524
22973,579,65524
22980,550,65524
22986,547,65524
22993,541,65524
23001,549,65524
23006,544,65524
23013,526,65524
23020,512,65524
23026,490,65524
23033,530,65524
23041,538,65524
23046,504,65524
23053,496,65524
23060,523,65524
23066,532,65524
23072,494,65524
23080,424,65524
23087,389,65524
23093,356,65524
23100,443,65524
23106,512,65524
23113,461,65524
23120,433,65524
23127,493,65524
23133,566,65524
23140,604,65524
23146,623,65524
23153,611,65524
23159,567,65524
23166,523,65524
23173,499,65524
23180,482,65524
23186,491,65524
23193,494,65524
23200,524,65524
23206,566,65524
23214,554,65524
23220,520,65524
23226,516,65524
23233,481,65524
23240,510,65524
23245,569,65524
23254,581,65524
23260,543,65524
23266,496,65524
23273,456,65524
23280,450,65524
23286,491,65524
23293,518,65524
23301,550,65524
23306,554,65524
23313,509,65524
23320,381,65524
23326,320,65524
23333,263,65524
23341,427,65524
23345,573,65524
23353,651,65524
23360,619,65524
23366,586,65524
23373,468,65524
23380,501,65524
23386,529,65524
23393,458,65524
23400,426,65524
23406,456,65524
23413,560,65524
23420,573,65524
23427,559,65524
23432,555,65524
23440,606,65524
23446,583,65524
23453,452,65524
23460,397,65524
23467,474,65524
23473,629,65524
23480,634,65524
23486,592,65524
23493,572,65524
23500,487,65524
23506,399,65524
23514,419,65524
23520,498,65524
23526,535,65524
23532,621,65524
23540,625,65524
23546,583,65524
23554,532,65524
23560,490,65524
23566,447,65524
23573,380,65524
23580,325,65524
23586,366,65524
23593,571,65524
23600,609,65524
23606,541,65524
23613,528,65524
23619,575,65524
23626,578,65524
23633,590,65524
23641,517,65524
23646,488,65524
23653,535,65524
23660,550,65524
23666,521,65524
23673,427,65524
23681,383,65524
23686,330,65524
23693,358,65524
23700,617,65524
23706,688,65524
23713,610,65524
23719,571,65524
23727,498,65524
23733,445,65524
23740,456,65524
23746,458,65524
23753,480,65524
23760,550,65524
23767,530,65524
23773,457,65524
23780,479,65524
23786,521,65524
23793,525,65524
23800,522,65524
23805,489,65524
23813,482,65524
23820,442,65524
23826,430,65524
23833,426,65524
23840,456,65524
23846,495,65524
23854,507,65524
23860,528,65524
23866,522,65524
23873,518,65524
23880,505,65524
23886,454,65524
23894,437,65524
23900,476,65524
23905,488,65524
23913,379,65524
23920,424,65524
23926,502,65524
23933,485,65524
23940,531,65524
23946,551,65524
23953,529,65524
23960,542,65524
23966,487,65524
23973,508,65524
23981,420,65524
23986,379,65524
23993,484,65524
24000,567,65524
24005,532,65524
24013,485,65524
24020,457,65524
24026,499,65524
24033,571,65524
24040,528,65524
24046,387,65524
24053,402,65524
24060,567,65524
24067,576,65524
24073,531,65524
24080,540,65524
24086,582,65524
24092,557,65524
24100,496,65524
24107,434,65524
24113,354,65524
24120,357,65524
24126,499,65524
24133,616,65524
24140,637,65524
24146,618,65524
24154,583,65524
24160,533,65524
24166,493,65524
24173,428,65524
24179,349,65524
24186,213,65524
24193,279,65524
24200,509,65524
24206,568,65524
24213,549,65524
24220,568,65524
24226,570,65524
24233,560,65524
24240,536,65524
24246,463,65524
24253,428,65524
24260,413,65524
24266,512,65524
24273,624,65524
24280,564,65524
24286,517,65524
24293,538,65524
24300,572,65524
24306,563,65524
24313,563,65524
24321,543,65524
24326,502,65524
24333,501,65524
24340,491,65524
24346,456,65524
24353,469,65524
24360,509,65524
24366,525,65524
24373,549,65524
24379,524,65524
24386,500,65524
24393,485,65524
24400,492,65524
24407,468,65524
24413,444,65524
24420,436,65524
24426,455,65524
24433,413,65524
24440,407,65524
24446,455,65524
24453,464,65524
24460,499,65524
24466,553,65524
24473,566,65524
24479,513,65524
24486,446,65524
24494,438,65524
24500,508,65524
24506,485,65524
24513,513,65524
24520,594,65524
24526,581,65524
24534,579,65524
24540,600,65524
24546,595,65524
24553,555,65524
24560,502,65524
24566,430,65524
24573,482,65524
24581,568,65524
24586,567,65524
24593,557,65524
24600,537,65524
24606,543,65524
24613,516,65524
24621,569,65524
24626,597,65524
24633,585,65524
24640,551,65524
24646,493,65524
24653,460,65524
24660,467,65524
24665,450,65524
24673,462,65524
24680,523,65524
24686,522,65524
24693,570,65524
24700,630,65524
24707,577,65524
24713,537,65524
24720,498,65524
24726,458,65524
24733,454,65524
24740,529,65524
24747,544,65524
24752,536,65524
24760,533,65524
24766,499,65524
24773,498,65524
24780,567,65524
24786,530,65524
24794,427,65524
24800,435,65524
24806,510,65524
24813,572,65524
24820,629,65524
24826,617,65524
24834,565,65524
24840,535,65524
24846,447,65524
24852,383,65524
24860,488,65524
24866,563,65524
24873,549,65524
24880,529,65524
24886,533,65524
24893,536,65524
24900,521,65524
24906,492,65524
24913,447,65524
24921,448,65524
24926,465,65524
24933,470,65524
24939,516,65524
24946,568,65524
24953,550,65524
24961,520,65524
24966,517,65524
24973,510,65524
24980,492,65524
24986,475,65524
24993,413,65524
25000,463,65524
25007,539,65524
25013,558,65524
25020,552,65524
25026,559,65524
25033,569,65524
25039,559,65524
25047,535,65524
25053,505,65524
25060,486,65524
25066,414,65524
25073,405,65524
25080,514,65524
25086,556,65524
25093,565,65524
25100,547,65524
25106,521,65524
25113,505,65524
25120,502,65524
25126,490,65524
25134,465,65524
25140,457,65524
25146,445,65524
25153,484,65524
25160,477,65524
25166,477,65524
25174,518,65524
25180,545,65524
25186,513,65524
25193,477,65524
25200,486,65524
25206,514,65524
25213,512,65524
25221,501,65524
25226,503,65524
25233,544,65524
25240,537,65524
25246,506,65524
25253,499,65524
25261,526,65524
25266,520,65524
25273,468,65524
25280,514,65524
25286,548,65524
25293,517,65524
25300,517,65524
25306,490,65524
25313,511,65524
25320,598,65524
25325,574,65524
25333,489,65524
25340,443,65524
25347,332,65524
25353,309,65524
25360,436,65524
25366,515,65524
25373,555,65524
25380,562,65524
25387,547,65524
25393,499,65524
25400,483,65524
25406,529,65524
25412,571,65524
25420,554,65524
25426,517,65524
25434,535,65524
25440,533,65524
25446,442,65524
25453,460,65524
25460,590,65524
25466,614,65524
25474,578,65524
25480,554,65524
25486,535,65524
25493,517,65524
25500,518,65524
25506,510,65524
25512,489,65524
25520,463,65524
25526,385,65524
25533,396,65524
25540,558,65524
25546,589,65524
25553,562,65524
25561,514,65524
25566,420,65524
25573,443,65524
25580,571,65524
25586,557,65524
25593,504,65524
25600,434,65524
25606,421,65524
25612,435,65524
25620,465,65524
25626,547,65524
25633,577,65524
25640,541,65524
25646,534,65524
25653,507,65524
25660,489,65524
25666,504,65524
25673,460,65524
25680,465,65524
25687,489,65524
25693,531,65524
25699,610,65524
25706,628,65524
25713,595,65524
25720,578,65524
25726,567,65524
25733,545,65524
25740,497,65524
25746,471,65524
25753,532,65524
25760,564,65524
25766,513,65524
25774,443,65524
25780,482,65524
25786,564,65524
25793,561,65524
25799,544,65524
25806,541,65524
25814,553,65524
25820,556,65524
25826,544,65524
25833,529,65524
25840,480,65524
25846,456,65524
25853,500,65524
25860,537,65524
25866,533,65524
25873,509,65524
25880,490,65524
25885,483,65524
25893,499,65524
25901,511,65524
25906,528,65524
25913,537,65524
25920,528,65524
25926,517,65524
25933,506,65524
25940,488,65524
25946,477,65524
25953,467,65524
25960,464,65524
25966,446,65524
25972,482,65524
25980,487,65524
25987,511,65524
25993,574,65524
26000,574,65524
26006,552,65524
26013,531,65524
26020,502,65524
26027,482,65524
26033,495,65524
26040,535,65524
26046,527,65524
26053,451,65524
26059,457,65524
26066,519,65524
26073,529,65524
26080,539,65524
26086,537,65524
26093,501,65524
26100,489,65524
26106,476,65524
26114,471,65524
26120,512,65524
26126,558,65524
26133,528,65524
26140,509,65524
26146,499,65524
26153,521,65524
26159,535,65524
26166,525,65524
26173,523,65524
26180,506,65524
26186,486,65524
26193,473,65524
26201,507,65524
26206,504,65524
26213,468,65524
26220,530,65524
26226,575,65524
26233,553,65524
26241,508,65524
26246,483,65524
26253,492,65524
26259,513,65524
26266,458,65524
26273,457,65524
26280,459,65524
26287,473,65524
26293,545,65524
26300,596,65524
26306,564,65524
26313,528,65524
26320,530,65524
26327,519,65524
26333,480,65524
26340,476,65524
26346,484,65524
26353,484,65524
26359,515,65524
26366,498,65524
26373,487,65524
26380,516,65524
26386,529,65524
26393,472,65524
26400,500,65524
26406,571,65524
26414,562,65524
26420,518,65524
26426,440,65524
26433,363,65524
26440,312,65524
26446,364,65524
26454,419,65524
26460,532,65524
26466,628,65524
26473,609,65524
26480,580,65524
26486,533,65524
26493,515,65524
26501,566,65524
26506,567,65524
26513,545,65524
26520,505,65524
26526,468,65524
26533,489,65524
26541,514,65524
26545,511,65524
26553,477,65524
26560,494,65524
26566,567,65524
26573,604,65524
26580,580,65524
26586,552,65524
26593,518,65524
26600,497,65524
26606,490,65524
26613,469,65524
26620,453,65524
26627,451,65524
26633,468,65524
26640,427,65524
26645,433,65524
26653,543,65524
26660,567,65524
26667,552,65524
26673,525,65524
26680,505,65524
26686,486,65524
26693,453,65524
26700,404,65524
26706,362,65524
26714,421,65524
26720,517,65524
26726,541,65524
26733,513,65524
26740,548,65524
26745,575,65524
26754,578,65524
26760,569,65524
26766,555,65524
26773,535,65524
26780,515,65524
26786,472,65524
26793,484,65524
26800,529,65524
26806,500,65524
26813,528,65524
26820,595,65524
26826,595,65524
26833,556,65524
26841,536,65524
26845,531,65524
26853,515,65524
26860,519,65524
26866,515,65524
26873,465,65524
26881,477,65524
26886,525,65524
26893,551,65524
26900,570,65524
26906,563,65524
26913,535,65524
26920,504,65524
26927,484,65524
26932,484,65524
26940,418,65524
26946,389,65524
26953,532,65524
26960,618,65524
26967,597,65524
26973,580,65524
26980,554,65524
26986,526,65524
26993,485,65524
27000,466,65524
27006,469,65524
27013,451,65524
27020,435,65524
27026,436,65524
27032,516,65524
27040,613,65524
27046,580,65524
27054,562,65524
27060,543,65524
27066,511,65524
27073,503,65524
27080,510,65524
27086,494,65524
27094,481,65524
27100,472,65524
27106,453,65524
27113,426,65524
27119,485,65524
27126,569,65524
27132,562,65524
27141,515,65524
27146,502,65524
27153,522,65524
27160,542,65524
27166,516,65524
27173,498,65524
27181,501,65524
27186,462,65524
27193,462,65524
27200,534,65524
27206,498,65524
27213,485,65524
27220,564,65524
27226,558,65524
27233,541,65524
27240,540,65524
27246,513,65524
27253,499,65524
27260,481,65524
27267,482,65524
27273,471,65524
27280,413,65524
27286,462,65524
27293,555,65524
27300,514,65524
27305,511,65524
27313,556,65524
27319,579,65524
27326,554,65524
27333,527,65524
27340,517,65524
27346,483,65524
27354,457,65524
27360,473,65524
27366,463,65524
27373,436,65524
27380,491,65524
27386,558,65524
27394,563,65524
27400,547,65524
27406,519,65524
27413,481,65524
27419,483,65524
27426,502,65524
27433,515,65524
27440,509,65524
27446,432,65524
27453,434,65524
27460,557,65524
27466,581,65524
27473,553,65524
27481,541,65524
27486,529,65524
27493,502,65524
27500,467,65524
27506,450,65524
27513,461,65524
27520,435,65524
27526,461,65524
27532,555,65524
27540,597,65524
27546,562,65524
27553,525,65524
27560,531,65524
27566,537,65524
27573,526,65524
27580,516,65524
27586,460,65524
27593,458,65524
27600,518,65524
27607,487,65524
27613,425,65524
27620,461,65524
27626,532,65524
27632,556,65524
27640,507,65524
27646,429,65524
27653,406,65524
27660,439,65524
27666,469,65524
27673,498,65524
27680,507,65524
27686,461,65524
27694,438,65524
27700,503,65524
27706,542,65524
27713,584,65524
27719,623,65524
27726,600,65524
27732,560,65524
27740,551,65524
27746,544,65524
27753,530,65524
27760,500,65524
27766,463,65524
27773,438,65524
27780,467,65524
27786,542,65524
27793,587,65524
27800,544,65524
27806,512,65524
27813,531,65524
27821,538,65524
27826,523,65524
27832,495,65524
27840,452,65524
27846,428,65524
27853,463,65524
27860,490,65524
27866,514,65524
27873,534,65524
27880,528,65524
27886,492,65524
27893,501,65524
27900,514,65524
27907,501,65524
27913,475,65524
27920,450,65524
27926,439,65524
27932,442,65524
27940,395,65524
27947,425,65524
27953,534,65524
27960,596,65524
27966,588,65524
27973,572,65524
27980,557,65524
27986,539,65524
27994,519,65524
28000,472,65524
28006,478,65524
28013,545,65524
28020,574,65524
28026,551,65524
28033,518,65524
28040,499,65524
28046,525,65524
28053,567,65524
28060,588,65524
28066,568,65524
28073,542,65524
28080,533,65524
28086,507,65524
28093,498,65524
28100,478,65524
28106,449,65524
28113,464,65524
28121,525,65524
28126,537,65524
28132,510,65524
28140,523,65524
28146,558,65524
28153,566,65524
28161,537,65524
28166,499,65524
28173,477,65524
28180,494,65524
28186,493,65524
28193,509,65524
28200,508,65524
28206,510,65524
28213,535,65524
28220,555,65524
28226,530,65524
28232,498,65524
28240,512,65524
28247,534,65524
28253,525,65524
28260,503,65524
28266,495,65524
28273,447,65524
28280,449,65524
28286,503,65524
28293,500,65524
28300,477,65524
28306,510,65524
28313,550,65524
28320,552,65524
28326,547,65524
28333,542,65524
28340,533,65524
28346,516,65524
28353,495,65524
28360,470,65524
28366,457,65524
28374,486,65524
28380,514,65524
28386,514,65524
28393,519,65524
28400,542,65524
28406,538,65524
28413,496,65524
28420,467,65524
28426,467,65524
28432,486,65524
28440,505,65524
28446,518,65524
28453,512,65524
28461,506,65524
28466,514,65524
28473,528,65524
28480,536,65524
28486,515,65524
28493,503,65524
28500,496,65524
28506,496,65524
28513,507,65524
28520,458,65524
28526,424,65524
28532,494,65524
28540,557,65524
28547,542,65524
28553,513,65524
28560,521,65524
28566,541,65524
28573,549,65524
28580,532,65524
28587,508,65524
28593,492,65524
28600,469,65524
28606,472,65524
28613,488,65524
28620,459,65524
28626,490,65524
28633,527,65524
28640,526,65524
28646,519,65524
28653,530,65524
28660,526,65524
28666,512,65524
28674,499,65524
28680,496,65524
28686,486,65524
28693,478,65524
28700,503,65524
28706,522,65524
28713,512,65524
28720,500,65524
28726,494,65524
28733,499,65524
28740,481,65524
28745,504,65524
28753,549,65524
28761,539,65524
28766,530,65524
28773,506,65524
28780,466,65524
28786,439,65524
28793,477,65524
28801,509,65524
28806,538,65524
28813,553,65524
28820,536,65524
28826,529,65524
28833,491,65524
28840,488,65524
28847,540,65524
28853,545,65524
28860,500,65524
28866,504,65524
28873,544,65524
28880,527,65524
28887,471,65524
28893,423,65524
28900,375,65524
28906,388,65524
28913,457,65524
28920,480,65524
28926,449,65524
28933,456,65524
28940,534,65524
28945,558,65524
28953,575,65524
28960,609,65524
28966,593,65524
28974,569,65524
28980,554,65524
28986,528,65524
28993,492,65524
29000,511,65524
29006,523,65524
29014,508,65524
29020,488,65524
29026,470,65524
29033,519,65524
29040,597,65524
29046,589,65524
29053,563,65524
29061,535,65524
29066,517,65524
29073,502,65524
29080,485,65524
29086,465,65524
29093,463,65524
29101,480,65524
29106,501,65524
29113,530,65524
29120,523,65524
29126,493,65524
29133,476,65524
29140,467,65524
29146,465,65524
29153,464,65524
29160,458,65524
29166,463,65524
29173,481,65524
29180,487,65524
29187,501,65524
29193,504,65524
29200,507,65524
29206,491,65524
29213,434,65524
29220,494,65524
29227,510,65524
29233,513,65524
29240,592,65524
29245,581,65524
29253,582,65524
29260,627,65524
29266,573,65524
29274,534,65524
29280,558,65524
29286,577,65524
29293,574,65524
29300,525,65524
29306,499,65524
29314,487,65524
29320,507,65524
29326,526,65524
29333,529,65524
29340,559,65524
29345,576,65524
29353,555,65524
29360,526,65524
29366,479,65524
29373,481,65524
29380,551,65524
29386,562,65524
29393,525,65524
29401,522,65524
29406,524,65524
29413,519,65524
29420,495,65524
29426,456,65524
29432,450,65524
29441,502,65524
29446,534,65524
29453,545,65524
29460,544,65524
29466,499,65524
29473,491,65524
29480,524,65524
29487,525,65524
29493,514,65524
29500,458,65524
29506,417,65524
29513,461,65524
29520,458,65524
29527,501,65524
29532,582,65524
29540,598,65524
29546,555,65524
29553,538,65524
29560,540,65524
29566,514,65524
29573,471,65524
29580,484,65524
29586,484,65524
29593,463,65524
29600,530,65524
29606,537,65524
29614,501,65524
29620,541,65524
29626,559,65524
29632,548,65524
29640,538,65524
29646,502,65524
29654,499,65524
29660,501,65524
29666,473,65524
29673,448,65524
29680,484,65524
29686,519,65524
29693,508,65524
29701,519,65524
29706,536,65524
29713,535,65524
29720,514,65524
29726,496,65524
29733,501,65524
29741,507,65524
29745,502,65524
29753,498,65524
29760,495,65524
29766,491,65524
29773,494,65524
29780,485,65524
29786,474,65524
29793,473,65524
29800,463,65524
29806,440,65524
29813,441,65524
29820,450,65524
29827,486,65524
29833,558,65524
29840,576,65524
29845,543,65524
29853,516,65524
29860,537,65524
29867,564,65524
29873,556,65524
29880,537,65524
29886,493,65524
29893,452,65524
29900,461,65524
29906,450,65524
29914,479,65524
29920,530,65524
29926,528,65524
29933,504,65524
29940,499,65524
29946,513,65524
29954,498,65524
29959,491,65524
29966,529,65524
29973,523,65524
29980,519,65524
29986,542,65524
29993,538,65524
30000,515,65524
30006,520,65524
30013,525,65524
30020,510,65524
30026,463,65524
30033,459,65524
30041,490,65524
30046,462,65524
30053,487,65524
30059,529,65524
30066,478,65524
30073,400,65524
30081,385,65524
30086,417,65524
30093,483,65524
30100,531,65524
30106,497,65524
30113,470,65524
30120,522,65524
30127,572,65524
30133,596,65524
30140,591,65524
30146,546,65524
30153,479,65524
30159,485,65524
30167,551,65524
30173,580,65524
30180,552,65524
30186,525,65524
30193,527,65524
30200,533,65524
30206,513,65524
30213,465,65524
30220,470,65524
30226,499,65524
30233,518,65524
30240,527,65524
30246,523,65524
30254,520,65524
30259,515,65524
30266,513,65524
30273,497,65524
30280,494,65524
30286,488,65524
30294,463,65524
30300,443,65524
30306,451,65524
30313,485,65524
30320,490,65524
30326,464,65524
30333,464,65524
30341,495,65524
30346,490,65524
30353,484,65524
30359,485,65524
30366,490,65524
30373,499,65524
30381,501,65524
30386,509,65524
30393,516,65524
30400,530,65524
30406,530,65524
30413,526,65524
30420,533,65524
30426,544,65524
30433,545,65524
30440,510,65524
30446,497,65524
30453,524,65524
30459,531,65524
30467,534,65524
30473,551,65524
30480,558,65524
30486,554,65524
30493,565,65524
30500,571,65524
30507,553,65524
30513,518,65524
30520,440,65524
30526,437,65524
30533,526,65524
30540,589,65524
30545,575,65524
30554,566,65524
30560,553,65524
30566,531,65524
30573,525,65524
30580,524,65524
30586,514,65524
30594,500,65524
30600,486,65524
30606,486,65524
30613,483,65524
30620,489,65524
30626,447,65524
30632,466,65524
30640,535,65524
30646,551,65524
30653,541,65524
30660,531,65524
30666,521,65524
30673,514,65524
30681,512,65524
30686,495,65524
30693,480,65524
30700,492,65524
30706,489,65524
30713,493,65524
30721,496,65524
30726,501,65524
30732,520,65524
30740,523,65524
30746,510,65524
30753,514,65524
30760,477,65524
30766,478,65524
30773,491,65524
30780,510,65524
30786,521,65524
30793,520,65524
30800,528,65524
30807,508,65524
30813,474,65524
30820,485,65524
30826,514,65524
30832,535,65524
30840,508,65524
30846,506,65524
30853,516,65524
30860,504,65524
30866,484,65524
30873,491,65524
30880,500,65524
30886,506,65524
30894,518,65524
30900,510,65524
30906,496,65524
30913,510,65524
30920,511,65524
30926,510,65524
30932,498,65524
30940,463,65524
30946,472,65524
30953,517,65524
30960,508,65524
30966,494,65524
30973,527,65524
30980,542,65524
30986,513,65524
30993,513,65524
31000,502,65524
31006,511,65524
31013,511,65524
31021,485,65524
31026,463,65524
31032,453,65524
31040,506,65524
31046,555,65524
31053,569,65524
31060,541,65524
31066,527,65524
31073,513,65524
31080,494,65524
31086,479,65524
31093,495,65524
31100,460,65524
31107,476,65524
31113,544,65524
31120,563,65524
31126,548,65524
31132,541,65524
31140,533,65524
31147,527,65524
31153,510,65524
31160,472,65524
31166,462,65524
31173,478,65524
31180,486,65524
31186,500,65524
31194,533,65524
31200,528,65524
31206,506,65524
31213,461,65524
31220,423,65524
31226,372,65524
31234,393,65524
31240,456,65524
31245,496,65524
31253,518,65524
31260,523,65524
31266,521,65524
31273,547,65524
31280,530,65524
31286,511,65524
31293,542,65524
31300,570,65524
31306,553,65524
31313,549,65524
31321,530,65524
31326,518,65524
31333,528,65524
31340,534,65524
31346,537,65524
31353,531,65524
31360,510,65524
31366,475,65524
31373,480,65524
31380,488,65524
31386,498,65524
31393,520,65524
31400,505,65524
31406,498,65524
31413,498,65524
31420,505,65524
31426,525,65524
31433,533,65524
31440,491,65524
31447,458,65524
31453,475,65524
31459,505,65524
31466,507,65524
31473,450,65524
31480,371,65524
31486,430,65524
31493,531,65524
31500,564,65524
31506,536,65524
31513,461,65524
31520,448,65524
31526,497,65524
31534,567,65524
31540,576,65524
31546,566,65524
31553,560,65524
31559,553,65524
31566,544,65524
31574,536,65524
31580,528,65524
31586,500,65524
31593,507,65524
31600,499,65524
31606,508,65524
31613,558,65524
31620,575,65524
31626,567,65524
31633,539,65524
31640,495,65524
31646,511,65524
31653,555,65524
31660,552,65524
31666,539,65524
31673,538,65524
31680,521,65524
31686,470,65524
31693,432,65524
31700,467,65524
31706,516,65524
31713,574,65524
31720,569,65524
31726,559,65524
31733,552,65524
31740,533,65524
31746,512,65524
31753,506,65524
31760,476,65524
31766,450,65524
31773,478,65524
31780,507,65524
31787,531,65524
31793,546,65524
31800,547,65524
31806,542,65524
31813,530,65524
31820,513,65524
31826,503,65524
31834,504,65524
31840,485,65524
31845,494,65524
31853,513,65524
31860,496,65524
31866,502,65524
31874,512,65524
31880,502,65524
31886,504,65524
31893,515,65524
31900,514,65524
31906,510,65524
31913,520,65524
31920,511,65524
31926,498,65524
31933,504,65524
31940,501,65524
31945,495,65524
31953,494,65524
31961,496,65524
31966,503,65524
31973,501,65524
31980,501,65524
31986,495,65524
31993,505,65524
32001,495,65524
32006,499,65524
32013,524,65524
32020,542,65524
32026,514,65524
32033,494,65524
32040,503,65524
32046,514,65524
32053,490,65524
32059,491,65524
32066,513,65524
32073,526,65524
32080,539,65524
32087,544,65524
32093,551,65524
32100,541,65524
32106,519,65524
32113,499,65524
32120,502,65524
32126,499,65524
32133,495,65524
32140,492,65524
32146,466,65524
32153,479,65524
32159,524,65524
32166,536,65524
32174,550,65524
32180,544,65524
32186,516,65524
32193,498,65524
32200,500,65524
32206,489,65524
32214,489,65524
32220,497,65524
32226,509,65524
32233,512,65524
32240,517,65524
32246,507,65524
32253,496,65524
32259,499,65524
32266,517,65524
32273,538,65524
32280,530,65524
32286,505,65524
32293,501,65524
32301,503,65524
32306,505,65524
32313,528,65524
32320,544,65524
32326,537,65524
32333,525,65524
32340,492,65524
32346,467,65524
32353,417,65524
32359,356,65524
32366,358,65524
32373,423,65524
32380,482,65524
32387,512,65524
32393,502,65524
32400,520,65524
32406,520,65524
32413,507,65524
32420,562,65524
32427,598,65524
32433,589,65524
32440,588,65524
32446,573,65524
32453,508,65524
32459,479,65524
32466,507,65524
32474,536,65524
32480,554,65524
32486,553,65524
32493,551,65524
32500,543,65524
32506,548,65524
32514,555,65524
32520,540,65524
32526,486,65524
32533,475,65524
32540,488,65524
32546,475,65524
32553,504,65524
32560,528,65524
32566,529,65524
32573,481,65524
32580,472,65524
32586,492,65524
32593,509,65524
32601,482,65524
32606,470,65524
32613,502,65524
32620,513,65524
32626,488,65524
32633,480,65524
32641,469,65524
32645,463,65524
32653,476,65524
32660,516,65524
32666,529,65524
32673,526,65524
32680,530,65524
32687,521,65524
32693,495,65524
32700,470,65524
32706,512,65524
32713,561,65524
32720,577,65524
32727,569,65524
32733,563,65524
32740,553,65524
32745,544,65524
32753,535,65524
32760,512,65524
32766,502,65524
32773,508,65524
32780,498,65524
32786,509,65524
32793,522,65524
32800,511,65524
32806,508,65524
32814,512,65524
32820,507,65524
32826,503,65524
32833,489,65524
32840,490,65524
32846,496,65524
32854,524,65524
32860,516,65524
32866,508,65524
32873,512,65524
32880,508,65524
32886,497,65524
32893,500,65524
32901,496,65524
32906,488,65524
32913,485,65524
32920,488,65524
32926,505,65524
32933,482,65524
32941,514,65524
32946,524,65524
32953,522,65524
32960,478,65524
32966,456,65524
32973,489,65524
32980,546,65524
32986,576,65524
32993,583,65524
33000,555,65524
33006,533,65524
33013,507,65524
33020,476,65524
33027,475,65524
33033,506,65524
33040,514,65524
33045,516,65524
33053,524,65524
33060,519,65524
33067,525,65524
33073,529,65524
33080,500,65524
33086,495,65524
33093,509,65524
33100,493,65524
33106,467,65524
33114,440,65524
33120,476,65524
33126,550,65524
33133,573,65524
33140,544,65524
33145,530,65524
33154,516,65524
33160,508,65524
33166,500,65524
33173,482,65524
33180,485,65524
33186,468,65524
33193,485,65524
33200,495,65524
33206,483,65524
33213,483,65524
33220,514,65524
33226,529,65524
33233,544,65524
33241,532,65524
33246,527,65524
33253,539,65524
33259,523,65524
33266,488,65524
33273,496,65524
33281,504,65524
33286,481,65524
33293,471,65524
33300,505,65524
33306,521,65524
33313,520,65524
33320,525,65524
33327,508,65524
33333,507,65524
33340,505,65524
33346,499,65524
33353,470,65524
33360,438,65524
33367,454,65524
33373,509,65524
33380,529,65524
33386,507,65524
33393,518,65524
33400,531,65524
33406,533,65524
33413,544,65524
33420,544,65524
33426,523,65524
33433,515,65524
33440,491,65524
33445,494,65524
33454,522,65524
33460,524,65524
33466,502,65524
33473,500,65524
33480,516,65524
33486,501,65524
33494,468,65524
33500,455,65524
33506,438,65524
33513,379,65524
33520,340,65524
33526,327,65524
33533,402,65524
33541,505,65524
33546,542,65524
33553,565,65524
33559,541,65524
33566,517,65524
33573,570,65524
33581,612,65524
33586,606,65524
33593,586,65524
33600,548,65524
33606,518,65524
33613,505,65524
33620,515,65524
33626,517,65524
33633,521,65524
33640,528,65524
33645,529,65524
33653,532,65524
33660,553,65524
33667,539,65524
33673,512,65524
33680,509,65524
33686,516,65524
33693,508,65524
33700,485,65524
33707,491,65524
33713,473,65524
33720,473,65524
33726,475,65524
33733,433,65524
33740,460,65524
33745,529,65524
33754,551,65524
33760,527,65524
33766,514,65524
33773,491,65524
33780,458,65524
33786,415,65524
33794,357,65524
33800,411,65524
33806,495,65524
33813,556,65524
33820,567,65524
33826,561,65524
33833,565,65524
33840,563,65524
33845,535,65524
33853,531,65524
33860,525,65524
33866,516,65524
33873,532,65524
33881,557,65524
33886,575,65524
33893,546,65524
33900,466,65524
33906,490,65524
33913,547,65524
33921,574,65524
33926,596,65524
33932,603,65524
33940,570,65524
33946,550,65524
33953,501,65524
33960,435,65524
33966,449,65524
33973,516,65524
33980,550,65524
33986,567,65524
33993,572,65524
34000,544,65524
34007,521,65524
34013,517,65524
34020,522,65524
34026,504,65524
34032,460,65524
34040,479,65524
34046,504,65524
34053,483,65524
34060,502,65524
34066,545,65524
34073,535,65524
34080,510,65524
34086,533,65524
34094,539,65524
34100,490,65524
34106,443,65524
34113,468,65524
34119,544,65524
34126,527,65524
34132,449,65524
34140,477,65524
34146,575,65524
34153,587,65524
34160,544,65524
34166,521,65524
34173,437,65524
34180,445,65524
34186,488,65524
34193,528,65524
34200,568,65524
34206,551,65524
34213,533,65524
34220,521,65524
34226,513,65524
34232,504,65524
34240,502,65524
34246,502,65524
34253,463,65524
34260,481,65524
34266,540,65524
34273,547,65524
34280,518,65524
34286,480,65524
34293,477,65524
34300,507,65524
34307,521,65524
34313,512,65524
34319,475,65524
34326,494,65524
34333,545,65524
34340,522,65524
34347,486,65524
34353,456,65524
34360,474,65524
34366,467,65524
34373,472,65524
34380,545,65524
34386,575,65524
34394,563,65524
34400,536,65524
34406,502,65524
34413,486,65524
34419,458,65524
34426,470,65524
34434,519,65524
34440,554,65524
34446,566,65524
34453,557,65524
34460,520,65524
34466,500,65524
34473,495,65524
34480,463,65524
34486,442,65524
34493,473,65524
34500,496,65524
34506,528,65524
34513,537,65524
34520,504,65524
34526,517,65524
34532,555,65524
34540,538,65524
34546,512,65524
34553,492,65524
34561,486,65524
34566,478,65524
34573,490,65524
34580,499,65524
34586,501,65524
34593,513,65524
34600,512,65524
34606,503,65524
34613,510,65524
34619,530,65524
34626,522,65524
34632,516,65524
34640,494,65524
34647,491,65524
34653,490,65524
34660,473,65524
34666,455,65524
34673,465,65524
34680,500,65524
34686,527,65524
34693,541,65524
34700,540,65524
34706,520,65524
34713,532,65524
34720,535,65524
34726,537,65524
34733,532,65524
34740,529,65524
34746,513,65524
34753,455,65524
34760,446,65524
34766,465,65524
34774,475,65524
34780,524,65524
34786,570,65524
34793,535,65524
34800,463,65524
34806,401,65524
34813,363,65524
34820,396,65524
34826,454,65524
34832,465,65524
34840,499,65524
34846,522,65524
34853,525,65524
34861,552,65524
34866,565,65524
34873,567,65524
34880,561,65524
34886,562,65524
34893,551,65524
34900,543,65524
34906,543,65524
34913,515,65524
34920,497,65524
34926,482,65524
34932,465,65524
34940,462,65524
34947,517,65524
34953,546,65524
34960,527,65524
34966,523,65524
34973,553,65524
34980,548,65524
34987,528,65524
34993,511,65524
35000,502,65524
35006,488,65524
35013,469,65524
35020,433,65524
35026,445,65524
35034,498,65524
35040,486,65524
35045,481,65524
35053,511,65524
35060,494,65524
35066,504,65524
35074,498,65524
35080,480,65524
35086,483,65524
35093,481,65524
35100,485,65524
35106,473,65524
35113,448,65524
35120,469,65524
35126,503,65524
35133,491,65524
35140,519,65524
35145,567,65524
35153,551,65524
35161,555,65524
35166,591,65524
35173,601,65524
35180,584,65524
35186,563,65524
35193,527,65524
35201,535,65524
35206,531,65524
35213,516,65524
35220,508,65524
35226,483,65524
35233,459,65524
35240,518,65524
35245,546,65524
35253,543,65524
35260,550,65524
35266,563,65524
35273,558,65524
35280,544,65524
35287,526,65524
35293,512,65524
35300,503,65524
35306,505,65524
35313,480,65524
35320,479,65524
35326,428,65524
35333,438,65524
35340,541,65524
35346,575,65524
35353,554,65524
35360,551,65524
35366,545,65524
35374,541,65524
35380,520,65524
35386,467,65524
35393,400,65524
35400,457,65524
35406,513,65524
35414,532,65524
35420,565,65524
35426,581,65524
35433,556,65524
35440,528,65524
35446,511,65524
35453,507,65524
35461,481,65524
35466,464,65524
35473,482,65524
35480,480,65524
35486,509,65524
35493,526,65524
35501,505,65524
35506,530,65524
35513,556,65524
35520,520,65524
35526,499,65524
35533,488,65524
35540,497,65524
35545,514,65524
35553,515,65524
35560,530,65524
35566,516,65524
35573,491,65524
35580,493,65524
35587,494,65524
35593,512,65524
35600,522,65524
35606,501,65524
35613,469,65524
35620,498,65524
35627,532,65524
35633,520,65524
35640,508,65524
35646,543,65524
35653,556,65524
35660,523,65524
35666,499,65524
35674,476,65524
35680,490,65524
35686,454,65524
35693,427,65524
35700,463,65524
35706,518,65524
35714,562,65524
35720,581,65524
35726,559,65524
35733,538,65524
35740,524,65524
35746,499,65524
35753,467,65524
35760,463,65524
35766,460,65524
35773,455,65524
35780,535,65524
35786,562,65524
35793,490,65524
35801,511,65524
35806,544,65524
35813,508,65524
35820,519,65524
35826,525,65524
35832,490,65524
35841,511,65524
35846,547,65524
35853,515,65524
35860,440,65524
35866,466,65524
35873,525,65524
35880,532,65524
35887,514,65524
35893,528,65524
35900,537,65524
35906,525,65524
35913,503,65524
35920,492,65524
35927,487,65524
35932,451,65524
35940,443,65524
35946,479,65524
35953,477,65524
35960,536,65524
35966,576,65524
35973,548,65524
35980,485,65524
35986,474,65524
35993,509,65524
36000,561,65524
36006,573,65524
36014,541,65524
36020,507,65524
36026,490,65524
36032,494,65524
36040,487,65524
36046,487,65524
36054,534,65524
36060,526,65524
36066,525,65524
36073,554,65524
36080,534,65524
36086,490,65524
36093,443,65524
36101,351,65524
36106,323,65524
36113,405,65524
36120,483,65524
36126,524,65524
36132,544,65524
36141,533,65524
36146,549,65524
36153,555,65524
36160,534,65524
36166,527,65524
36173,527,65524
36180,533,65524
36186,534,65524
36193,522,65524
36200,495,65524
36206,495,65524
36213,516,65524
36220,461,65524
36227,520,65524
36232,597,65524
36240,601,65524
36246,590,65524
36253,541,65524
36260,503,65524
36267,547,65524
36273,551,65524
36280,529,65524
36286,515,65524
36293,496,65524
36300,467,65524
36306,477,65524
36314,492,65524
36320,478,65524
36326,474,65524
36332,468,65524
36340,458,65524
36346,464,65524
36354,478,65524
36360,464,65524
36366,448,65524
36373,389,65524
36380,403,65524
36386,482,65524
36393,538,65524
36400,534,65524
36406,533,65524
36413,519,65524
36419,531,65524
36426,537,65524
36432,535,65524
36441,523,65524
36446,528,65524
36453,539,65524
36460,535,65524
36466,536,65524
36473,533,65524
36481,531,65524
36486,536,65524
36493,535,65524
36500,520,65524
36506,527,65524
36513,531,65524
36519,529,65524
36527,530,65524
36532,524,65524
36540,511,65524
36546,510,65524
36553,510,65524
36560,513,65524
36567,510,65524
36573,506,65524
36580,510,65524
36586,518,65524
36593,512,65524
36600,508,65524
36606,515,65524
36613,493,65524
36620,502,65524
36626,520,65524
36632,519,65524
36640,507,65524
36646,506,65524
36654,507,65524
36660,496,65524
36666,497,65524
36673,489,65524
36680,508,65524
36686,499,65524
36694,485,65524
36700,481,65524
36706,505,65524
36713,519,65524
36720,504,65524
36726,499,65524
36732,503,65524
36741,500,65524
36746,500,65524
36753,497,65524
36760,504,65524
36766,495,65524
36773,490,65524
36781,519,65524
36786,529,65524
36793,531,65524
36800,520,65524
36806,508,65524
36813,505,65524
36820,510,65524
36826,511,65524
36832,499,65524
36840,498,65524
36846,491,65524
36853,499,65524
36860,518,65524
36867,518,65524
36873,506,65524
36880,522,65524
36886,534,65524
36893,516,65524
36900,511,65524
36907,515,65524
36913,514,65524
36920,520,65524
36926,507,65524
36932,440,65524
36940,492,65524
36946,531,65524
36954,529,65524
36960,525,65524
36966,516,65524
36973,533,65524
36980,527,65524
36986,528,65524
36994,525,65524
37000,502,65524
37006,476,65524
37013,490,65524
37019,507,65524
37026,524,65524
37033,527,65524
37040,501,65524
37046,517,65524
37053,510,65524
37060,496,65524
37066,494,65524
37073,481,65524
37081,519,65524
37086,505,65524
37093,498,65524
37100,532,65524
37106,531,65524
37113,523,65524
37120,538,65524
37126,541,65524
37132,539,65524
37140,507,65524
37146,529,65524
37153,509,65524
37160,453,65524
37166,465,65524
37173,569,65524
37180,541,65524
37186,519,65524
37193,506,65524
37200,520,65524
37207,514,65524
37213,456,65524
37219,392,65524
37226,371,65524
37232,401,65524
37240,459,65524
37246,552,65524
37253,548,65524
37260,552,65524
37266,578,65524
37273,578,65524
37280,543,65524
37286,531,65524
37294,538,65524
37300,503,65524
37306,538,65524
37313,529,65524
37319,519,65524
37326,527,65524
37334,542,65524
37340,502,65524
37346,519,65524
37353,554,65524
37360,512,65524
37366,544,65524
37373,548,65524
37380,448,65524
37386,496,65524
37393,495,65524
37400,558,65524
37406,422,65524
37413,483,65524
37420,441,65524
37426,520,65524
37433,499,65524
37440,400,65524
37446,466,65524
37453,467,65524
37460,461,65524
37466,470,65524
37473,433,65524
37480,452,65524
37486,483,65524
37493,490,65524
37500,513,65524
37507,533,65524
37513,488,65524
37519,513,65524
37526,523,65524
37533,598,65524
37540,553,65524
37547,549,65524
37553,585,65524
37560,556,65524
37566,563,65524
37573,557,65524
37580,547,65524
37586,573,65524
37594,564,65524
37600,581,65524
37606,587,65524
37613,557,65524
37619,561,65524
37626,538,65524
37633,560,65524
37640,541,65524
37646,571,65524
37653,518,65524
37660,526,65524
37666,542,65524
37673,506,65524
37680,492,65524
37686,507,65524
37693,503,65524
37700,525,65524
37706,525,65524
37713,545,65524
37720,519,65524
37726,489,65524
37733,515,65524
37740,507,65524
37746,519,65524
37753,513,65524
37761,494,65524
37766,502,65524
37773,518,65524
37780,519,65524
37786,505,65524
37793,491,65524
37800,487,65524
37806,515,65524
37813,493,65524
37819,492,65524
37826,509,65524
37833,496,65524
37840,498,65524
37847,506,65524
37853,503,65524
37860,501,65524
37866,520,65524
37873,519,65524
37880,488,65524
37886,510,65524
37893,485,65524
37900,474,65524
37906,489,65524
37913,504,65524
37919,506,65524
37926,504,65524
37934,502,65524
37940,514,65524
37946,505,65524
37953,505,65524
37960,496,65524
37966,502,65524
37974,499,65524
37980,473,65524
37986,487,65524
37993,484,65524
38000,495,65524
38006,516,65524
38013,527,65524
38020,520,65524
38026,504,65524
38032,489,65524
38040,487,65524
38046,516,65524
38053,492,65524
38061,532,65524
38066,517,65524
38073,494,65524
38080,497,65524
38086,489,65524
38093,484,65524
38100,480,65524
38106,477,65524
38113,469,65524
38120,502,65524
38126,456,65524
38132,433,65524
38140,461,65524
38147,497,65524
38153,507,65524
38160,487,65524
38166,500,65524
38173,512,65524
38180,514,65524
38187,509,65524
38193,467,65524
38200,459,65524
38206,495,65524
38213,506,65524
38219,483,65524
38226,498,65524
38234,511,65524
38240,500,65524
38246,495,65524
38253,476,65524
38260,485,65524
38266,515,65524
38274,490,65524
38280,462,65524
38286,447,65524
38293,358,65524
38300,359,65524
38306,412,65524
38313,487,65524
38319,483,65524
38326,511,65524
38333,531,65524
38340,550,65524
38346,561,65524
38353,543,65524
38361,526,65524
38366,502,65524
38373,575,65524
38380,535,65524
38386,545,65524
38393,535,65524
38401,548,65524
38406,551,65524
38413,525,65524
38419,505,65524
38426,577,65524
38432,503,65524
38440,506,65524
38447,551,65524
38453,527,65524
38460,581,65524
38466,435,65524
38473,547,65524
38480,552,65524
38487,444,65524
38493,474,65524
38500,520,65524
38506,515,65524
38513,478,65524
38519,565,65524
38526,440,65524
38532,463,65524
38540,515,65524
38546,513,65524
38553,514,65524
38560,488,65524
38566,488,65524
38574,493,65524
38580,505,65524
38586,496,65524
38593,505,65524
38600,508,65524
38606,557,65524
38614,520,65524
38620,527,65524
38626,554,65524
38632,543,65524
38640,566,65524
38646,590,65524
38653,589,65524
38661,516,65524
38666,557,65524
38673,524,65524
38680,538,65524
38686,560,65524
38693,519,65524
38701,535,65524
38706,545,65524
38713,530,65524
38720,534,65524
38726,523,65524
38732,523,65524
38740,560,65524
38746,557,65524
38753,520,65524
38760,504,65524
38766,535,65524
38773,480,65524
38780,519,65524
38787,547,65524
38793,567,65524
38800,489,65524
38806,513,65524
38813,530,65524
38819,506,65524
38827,509,65524
38832,483,65524
38840,509,65524
38846,544,65524
38853,531,65524
38860,611,65524
38866,460,65524
38874,410,65524
38880,473,65524
38886,516,65524
38893,502,65524
38900,513,65524
38906,519,65524
38914,519,65524
38920,515,65524
38926,478,65524
38932,503,65524
38940,499,65524
38946,505,65524
38953,543,65524
38960,474,65524
38966,453,65524
38973,482,65524
38980,502,65524
38986,522,65524
38993,489,65524
39001,485,65524
39006,487,65524
39013,516,65524
39019,479,65524
39026,483,65524
39033,512,65524
39041,526,65524
39046,514,65524
39053,488,65524
39060,507,65524
39066,518,65524
39073,503,65524
39080,480,65524
39087,511,65524
39093,514,65524
39100,526,65524
39106,534,65524
39113,507,65524
39119,496,65524
39127,504,65524
39133,478,65524
39140,455,65524
39146,485,65524
39153,522,65524
39160,544,65524
39166,498,65524
39173,477,65524
39180,459,65524
39186,495,65524
39193,498,65524
39200,501,65524
39206,453,65524
39214,539,65524
39220,515,65524
39226,277,65524
39232,122,65524
39240,502,65524
39246,393,65524
39254,349,65524
39260,680,65524
39266,735,65524
39273,722,65524
39280,674,65524
39286,708,65524
39293,662,65524
39301,505,65524
39306,462,65524
39313,560,65524
39319,448,65524
39326,367,65524
39332,380,65524
39341,143,65524
39346,198,65524
39353,652,65524
39360,661,65524
39366,611,65524
39373,604,65524
39380,565,65524
39386,543,65524
39393,522,65524
39400,412,65524
39406,401,65524
39413,541,65524
39419,521,65524
39427,517,65524
39433,514,65524
39440,458,65524
39446,453,65524
39453,403,65524
39460,475,65524
39467,524,65524
39473,507,65524
39480,561,65524
39486,507,65524
39493,534,65524
39500,498,65524
39506,541,65524
39514,516,65524
39520,481,65524
39526,438,65524
39532,475,65524
39540,413,65524
39546,328,65524
39554,285,65524
39560,153,65524
39566,430,65524
39573,770,65524
39580,774,65524
39586,659,65524
39593,583,65524
39600,536,65524
39606,538,65524
39613,513,65524
39620,488,65524
39626,451,65524
39632,513,65524
39641,570,65524
39646,561,65524
39653,548,65524
39660,530,65524
39666,525,65524
39673,514,65524
39681,485,65524
39686,518,65524
39693,511,65524
39700,472,65524
39706,507,65524
39713,558,65524
39719,504,65524
39727,523,65524
39733,529,65524
39740,551,65524
39746,513,65524
39753,510,65524
39760,492,65524
39767,560,65524
39773,554,65524
39780,531,65524
39786,515,65524
39793,492,65524
39800,465,65524
39806,459,65524
39813,503,65524
39820,543,65524
39826,557,65524
39832,555,65524
39840,569,65524
39846,539,65524
39854,528,65524
39860,511,65524
39866,509,65524
39873,415,65524
39880,397,65524
39886,423,65524
39894,373,65524
39900,546,65524
39906,615,65524
39913,615,65524
39920,643,65524
39926,625,65524
39932,559,65524
39941,558,65524
39946,488,65524
39953,420,65524
39960,469,65524
39966,592,65524
39973,639,65524
39981,761,65524
39986,789,65524
39993,605,65524
40000,461,65524
40006,506,65524
40013,509,65524
40019,486,65524
40026,434,65524
40032,461,65524
40040,703,65524
40046,753,65524
40053,625,65524
40060,580,65524
40067,628,65524
40073,622,65524
40080,483,65524
40086,348,65524
40093,367,65524
40100,620,65524
40107,683,65524
40113,644,65524
40119,664,65524
40126,630,65524
40133,609,65524
40140,490,65524
40146,303,65524
40154,310,65524
40160,356,65524
40166,484,65524
40173,620,65524
40180,561,65524
40186,549,65524
40194,512,65524
40200,437,65524
40206,396,65524
40213,289,65524
40219,349,65524
40226,593,65524
40233,669,65524
40240,695,65524
40246,686,65524
40253,615,65524
40260,555,65524
40266,467,65524
40273,390,65524
40281,464,65524
40286,419,65524
40293,367,65524
40300,581,65524
40305,595,65524
40313,636,65524
40320,631,65524
40326,568,65524
40333,542,65524
40340,502,65524
40346,480,65524
40353,374,65524
40360,317,65524
40366,330,65524
40373,210,65524
40380,319,65524
40386,575,65524
40393,664,65524
40400,670,65524
40406,619,65524
40413,518,65524
40419,456,65524
40426,512,65524
40433,538,65524
40440,450,65524
40446,425,65524
40453,431,65524
40460,446,65524
40466,344,65524
40473,541,65524
40480,748,65524
40486,668,65524
40494,576,65524
40500,534,65524
40505,525,65524
40513,486,65524
40520,483,65524
40526,495,65524
40534,460,65524
40540,442,65524
40546,417,65524
40553,374,65524
40560,402,65524
40566,445,65524
40573,464,65524
40580,541,65524
40586,552,65524
40593,493,65524
40600,457,65524
40605,408,65524
40613,395,65524
40621,429,65524
40626,410,65524
40633,318,65524
40640,318,65524
40646,481,65524
40653,606,65524
40660,602,65524
40666,630,65524
40673,612,65524
40680,568,65524
40686,546,65524
40693,508,65524
40700,492,65524
40706,449,65524
40713,492,65524
40720,574,65524
40726,560,65524
