TimeStamp,ECG Data,GSR Data
130640,629,6
130647,585,6
130653,529,6
130660,526,6
130666,541,6
130673,475,6
130619,643,6
130626,602,6
130633,663,6
130640,629,6
130647,585,6
130653,529,6
130660,526,6
130666,541,6
130673,475,6
130619,643,6
130626,602,6
130633,663,6
130640,629,6
130647,585,6
130653,529,6
130660,526,6
130666,541,6
130673,475,6
0,479,5
6,495,5
13,506,5
20,508,5
26,514,5
33,504,5
40,504,5
46,501,5
53,486,5
60,491,5
66,496,5
73,488,5
80,485,5
87,481,5
93,502,5
99,514,5
106,515,5
113,503,5
120,494,5
126,501,5
133,512,5
140,504,5
146,506,5
153,493,5
160,490,5
166,496,5
174,502,5
180,487,5
185,487,5
193,498,5
200,494,5
206,495,5
214,508,5
220,504,5
226,510,5
233,517,5
240,504,5
246,505,5
253,502,5
260,499,5
266,508,5
272,510,5
280,507,5
286,511,5
293,517,5
301,484,5
306,488,5
313,499,5
320,477,5
326,454,5
333,429,5
340,365,5
346,355,5
353,423,5
359,484,5
366,515,5
372,517,5
380,527,5
387,549,5
393,551,5
400,549,5
406,549,5
413,545,5
420,527,5
427,545,5
433,522,5
440,526,5
446,524,5
453,520,5
459,504,5
466,505,5
474,528,5
480,529,5
486,529,5
493,518,5
500,503,5
506,507,5
514,513,5
520,517,5
526,504,5
533,484,5
540,490,5
545,503,5
553,503,5
560,497,5
566,492,5
573,485,5
580,480,5
586,479,5
593,482,5
601,472,5
606,464,5
613,464,5
620,476,5
626,483,5
633,491,5
641,507,5
646,518,5
653,536,5
660,521,5
666,522,5
673,537,5
680,521,5
687,526,5
693,541,5
700,553,5
706,535,5
713,523,5
719,536,5
727,539,5
733,526,5
740,528,5
746,534,5
753,543,5
760,524,5
766,523,5
773,512,5
780,500,5
786,487,5
793,511,5
800,497,5
806,513,5
814,514,5
819,488,5
826,503,5
833,516,5
840,509,5
846,514,5
854,515,5
860,498,5
866,500,5
873,524,5
880,493,5
886,491,5
893,494,5
901,504,5
906,514,5
913,506,5
919,497,5
926,502,5
933,498,5
941,510,5
946,522,5
953,520,5
960,505,5
966,506,5
973,501,5
980,510,5
986,508,5
993,507,5
1000,496,5
1006,517,5
1013,509,5
1019,490,5
1027,484,5
1033,499,5
1040,496,5
1046,509,5
1053,510,5
1060,513,5
1067,519,5
1073,529,5
1080,516,5
1086,509,5
1093,529,5
1100,514,5
1106,509,5
1114,514,5
1119,535,5
1126,526,5
1133,503,5
1140,514,5
1146,517,5
1154,513,5
1160,512,5
1166,511,5
1173,493,5
1180,450,5
1186,407,5
1193,394,5
1200,417,5
1206,459,5
1213,524,5
1219,557,5
1226,544,5
1233,528,5
1241,532,5
1246,537,5
1253,537,5
1260,534,5
1266,534,5
1273,532,5
1281,528,5
1286,526,5
1293,517,5
1300,506,5
1305,518,5
1313,521,5
1320,515,5
1326,521,5
1333,492,5
1340,502,5
1346,499,5
1353,501,5
1360,495,5
1367,500,5
1373,501,5
1380,496,5
1386,489,5
1392,486,5
1400,483,5
1406,495,5
1413,482,5
1420,495,5
1426,487,5
1433,480,5
1440,462,5
1446,460,5
1454,468,5
1460,473,5
1466,475,5
1473,497,5
1479,511,5
1486,518,5
1494,512,5
1500,518,5
1506,534,5
1513,522,5
1520,526,5
1526,536,5
1533,546,5
1540,543,5
1546,537,5
1553,545,5
1560,533,5
1566,547,5
1573,553,5
1581,542,5
1586,538,5
1593,530,5
1600,526,5
1606,532,5
1613,547,5
1620,516,5
1626,518,5
1633,511,5
1640,508,5
1646,516,5
1653,522,5
1660,527,5
1666,528,5
1673,525,5
1680,528,5
1686,535,5
1693,521,5
1700,520,5
1707,526,5
1713,529,5
1720,521,5
1726,499,5
1733,507,5
1740,515,5
1746,507,5
1753,522,5
1760,522,5
1766,512,5
1773,515,5
1780,517,5
1786,522,5
1794,516,5
1800,533,5
1806,513,5
1813,488,5
1820,501,5
1826,504,5
1833,502,5
1839,501,5
1846,513,5
1853,521,5
1860,528,5
1866,533,5
1873,533,5
1881,525,5
1886,531,5
1893,526,5
1900,515,5
1906,523,5
1913,532,5
1921,518,5
1926,534,5
1933,523,5
1939,506,5
1946,515,5
1953,519,5
1960,497,5
1967,474,5
1973,442,5
1980,406,5
1986,430,5
1993,495,5
2000,529,5
2007,546,5
2013,547,5
2020,551,5
2025,556,5
2033,540,5
2040,529,5
2046,525,5
2053,538,5
2060,546,5
2066,553,5
2073,551,5
2080,544,5
2086,531,5
2094,524,5
2100,530,5
2106,531,5
2112,518,5
2120,519,5
2126,509,5
2134,509,5
2140,511,5
2146,515,5
2153,515,5
2160,510,5
2166,510,5
2173,503,5
2181,500,5
2186,503,5
2193,501,5
2199,488,5
2206,492,5
2212,497,5
2221,495,5
2226,508,5
2233,489,5
2240,476,5
2246,483,5
2253,494,5
2260,498,5
2266,508,5
2273,520,5
2280,511,5
2286,516,5
2293,518,5
2300,528,5
2307,544,5
2313,538,5
2320,537,5
2326,540,5
2333,551,5
2340,521,5
2347,523,5
2353,524,5
2360,523,5
2366,529,5
2373,520,5
2380,517,5
2385,520,5
2394,533,5
2400,527,5
2406,529,5
2413,535,5
2420,525,5
2426,518,5
2434,524,5
2440,508,5
2446,508,5
2453,512,5
2460,531,5
2466,531,5
2472,522,5
2480,496,5
2486,509,5
2493,501,5
2500,493,5
2506,500,5
2513,492,5
2521,492,5
2526,510,5
2533,512,5
2540,510,5
2546,511,5
2553,509,5
2561,523,5
2566,519,5
2573,515,5
2580,494,5
2586,495,5
2593,500,5
2600,499,5
2606,504,5
2613,502,5
2620,500,5
2626,506,5
2633,510,5
2640,507,5
2646,490,5
2653,486,5
2660,488,5
2666,502,5
2673,513,5
2680,501,5
2686,514,5
2693,508,5
2700,505,5
2706,514,5
2713,516,5
2720,516,5
2726,518,5
2733,518,5
2740,518,5
2746,527,5
2753,516,5
2760,512,5
2766,508,5
2774,503,5
2780,510,5
2786,531,5
2793,524,5
2800,472,5
2806,449,5
2813,406,5
2819,375,5
2826,401,5
2832,465,5
2840,512,5
2846,519,5
2853,515,5
2861,522,5
2866,543,5
2873,550,5
2880,536,5
2886,535,5
2893,543,5
2900,532,5
2906,525,5
2913,522,5
2919,522,5
2926,521,5
2933,519,5
2940,516,5
2947,515,5
2953,516,5
2960,508,5
2966,511,5
2973,512,5
2980,510,5
2987,505,5
2993,499,5
3000,506,5
3005,501,5
3013,494,5
3020,496,5
3026,499,5
3034,493,5
3040,478,5
3046,486,5
3053,474,5
3060,475,5
3066,478,5
3074,466,5
3080,466,5
3086,475,5
3092,476,5
3100,486,5
3106,497,5
3113,505,5
3120,512,6
3126,517,6
3133,522,6
3140,531,6
3146,531,6
3153,525,6
3161,538,6
3166,538,6
3173,529,6
3179,529,6
3186,526,6
3193,532,6
3201,529,6
3206,530,6
3213,523,6
3220,522,6
3226,517,6
3233,510,6
3240,510,6
3247,521,6
3253,528,6
3260,517,6
3265,513,6
3273,513,6
3280,515,6
3287,516,6
3293,514,6
3300,508,6
3306,506,6
3313,514,6
3320,513,6
3326,517,6
3333,511,6
3340,508,6
3346,526,6
3353,528,6
3360,507,6
3365,509,6
3374,507,6
3380,500,6
3386,501,6
3393,499,6
3400,496,6
3406,497,6
3414,500,6
3420,496,6
3426,507,6
3433,514,6
3440,508,6
3446,504,6
3452,500,6
3461,502,7
3466,502,7
3473,501,7
3480,502,7
3486,500,7
3493,502,7
3501,505,7
3506,512,7
3513,499,7
3520,504,7
3526,504,7
3533,495,7
3539,503,7
3546,510,7
3553,505,7
3560,502,7
3566,509,7
3573,522,7
3580,487,7
3587,484,7
3593,482,7
3600,478,7
3606,492,7
3613,499,7
3620,506,7
3627,520,7
3633,517,7
3640,513,7
3646,520,7
3653,513,7
3660,515,7
3666,516,7
3674,506,7
3680,507,7
3686,507,7
3693,515,7
3700,511,7
3706,511,7
3713,505,7
3720,506,7
3726,516,7
3733,518,7
3740,488,7
3746,458,7
3753,412,7
3760,374,7
3766,373,7
3773,424,7
3780,491,7
3786,516,7
3793,528,7
3800,538,7
3806,542,7
3813,542,7
3820,531,7
3826,533,7
3833,529,7
3841,525,7
3846,526,7
3853,537,7
3860,548,7
3866,523,7
3873,520,7
3880,511,8
3886,519,8
3893,522,8
3899,513,8
3906,510,8
3913,516,8
3920,509,8
3927,518,8
3933,504,8
3940,495,8
3946,495,8
3953,498,8
3960,501,8
3966,497,8
3973,502,8
3980,498,8
3986,491,8
3993,491,8
4000,473,8
4006,472,8
4014,470,8
4020,477,8
4026,486,8
4033,479,8
4040,485,8
4046,498,8
4054,492,8
4059,504,8
4066,512,8
4073,528,8
4080,535,8
4086,534,8
4093,534,8
4101,539,8
4106,548,8
4113,546,8
4120,534,8
4126,529,8
4133,526,8
4141,528,8
4146,533,8
4153,556,8
4159,531,8
4166,523,8
4173,515,8
4180,522,8
4186,529,8
4193,532,8
4200,527,8
4206,523,8
4213,515,8
4220,515,8
4227,510,8
4233,513,8
4240,516,8
4245,514,8
4253,516,8
4260,521,8
4267,517,8
4273,521,8
4280,515,8
4286,512,8
4293,512,8
4300,512,8
4306,507,8
4314,502,8
4320,502,8
4326,517,8
4332,515,8
4340,507,8
4346,515,8
4354,509,8
4360,513,8
4366,518,8
4373,514,8
4380,508,8
4386,502,8
4393,507,8
4400,499,8
4406,502,8
4413,498,8
4419,500,8
4426,508,8
4433,515,8
4441,510,8
4446,506,8
4453,507,8
4460,521,8
4466,506,8
4473,485,8
4481,492,8
4486,497,8
4493,504,8
4500,506,8
4506,509,8
4513,507,8
4520,505,8
4526,503,8
4533,506,8
4540,508,8
4546,507,8
4553,516,8
4560,496,8
4567,493,8
4573,499,8
4580,500,8
4586,502,8
4592,517,8
4600,509,8
4606,500,8
4613,495,8
4620,516,8
4626,504,8
4633,494,8
4640,505,8
4646,497,8
4654,498,8
4660,504,8
4665,515,8
4673,500,8
4680,497,8
4686,505,8
4694,516,8
4700,509,8
4706,504,8
4713,503,8
4720,512,8
4726,510,8
4733,501,8
4740,509,8
4746,515,8
4752,506,8
4760,511,8
4766,509,8
4773,493,8
4781,493,8
4786,497,8
4793,492,8
4800,492,8
4806,500,8
4813,516,8
4820,519,8
4826,510,8
4833,515,8
4839,514,8
4846,515,8
4853,515,8
4860,518,8
4867,519,8
4873,520,8
4880,514,8
4886,508,8
4893,503,8
4900,504,8
4907,515,8
4913,513,8
4920,503,8
4925,485,8
4933,448,8
4940,393,8
4946,366,8
4954,390,8
4960,443,8
4966,496,8
4973,524,8
4980,542,8
4986,538,8
4994,535,8
5000,538,8
5006,538,8
5012,539,8
5020,545,8
5026,536,8
5033,535,7
5040,524,7
5046,523,7
5053,514,7
5060,507,7
5066,522,7
5073,522,7
5081,511,7
5086,517,7
5093,518,7
5099,518,7
5106,513,7
5113,510,7
5121,522,7
5126,507,7
5133,489,7
5140,490,7
5146,492,7
5153,486,7
5160,498,7
5167,492,7
5173,486,7
5180,488,7
5186,487,7
5193,479,7
5200,480,7
5207,490,7
5213,478,7
5220,469,7
5226,474,7
5233,484,7
5240,493,7
5246,507,7
5253,525,7
5260,506,7
5266,517,7
5273,529,7
5280,534,7
5286,542,7
5294,544,7
5300,549,7
5306,541,7
5313,540,7
5320,544,7
5326,548,7
5334,531,7
5340,520,7
5346,533,7
5353,524,7
5359,521,7
5366,523,7
5373,519,7
5380,522,7
5386,525,7
5393,521,7
5400,522,7
5406,534,7
5413,516,7
5421,513,7
5426,516,7
5433,514,7
5440,519,7
5446,522,7
5453,531,7
5460,509,7
5466,508,7
5473,502,7
5480,501,7
5486,503,7
5493,503,7
5500,510,7
5507,514,7
5513,520,7
5520,507,7
5526,509,7
5533,505,7
5540,516,7
5547,514,7
5553,499,7
5560,495,7
5566,501,7
5573,496,7
5580,503,7
5586,511,7
5594,517,7
5600,499,7
5606,501,7
5613,501,7
5620,507,7
5626,511,7
5633,516,7
5640,521,7
5646,503,7
5653,484,7
5660,492,7
5666,505,7
5673,511,7
5680,523,7
5686,514,6
5693,508,6
5700,510,6
5706,520,6
5713,508,6
5721,500,6
5726,505,6
5733,526,6
5740,501,6
5746,505,6
5753,510,6
5761,509,6
5766,511,6
5773,513,6
5780,524,6
5786,521,6
5793,520,6
5800,511,6
5807,507,6
5813,502,6
5820,505,6
5826,509,6
5833,506,6
5840,501,6
5847,504,6
5853,502,6
5860,501,6
5866,507,6
5873,507,6
5880,506,6
5886,515,6
5892,504,6
5900,508,6
5906,516,6
5913,509,6
5920,509,6
5926,510,6
5934,508,6
5940,506,6
5946,508,6
5953,507,6
5960,513,6
5966,505,6
5974,509,6
5980,516,6
5986,492,6
5993,444,6
6000,413,6
6006,375,6
6013,390,6
6021,462,6
6026,503,6
6033,553,6
6040,537,6
6046,522,6
6052,529,6
6061,529,6
6066,531,6
6073,527,6
6080,523,6
6086,522,6
6093,521,6
6100,521,6
6106,520,6
6113,524,6
6120,527,6
6126,515,6
6133,521,6
6139,529,6
6147,521,6
6153,491,6
6160,498,6
6166,511,6
6173,504,6
6180,502,6
6187,503,6
6193,504,6
6200,499,6
6206,499,6
6213,495,6
6220,494,6
6226,506,6
6234,500,6
6240,481,6
6246,487,6
6253,480,6
6260,477,6
6266,477,6
6274,486,6
6280,478,6
6286,475,6
6293,479,6
6299,490,6
6306,503,6
6313,514,6
6320,522,6
6326,518,6
6333,528,6
6340,536,6
6346,542,6
6353,541,6
6361,537,6
6366,543,6
6373,545,6
6380,523,6
6386,523,6
6393,523,6
6401,530,6
6406,536,6
6413,535,6
6420,533,6
6426,544,6
6433,529,6
6440,526,6
6446,533,6
6453,516,6
6460,524,6
6466,519,6
6473,507,6
6480,520,6
6487,514,6
6493,503,6
6500,505,6
6506,517,5
6513,530,5
6520,508,5
6526,512,5
6533,512,5
6540,521,5
6546,519,5
6553,502,5
6560,512,5
6566,507,5
6573,500,5
6580,504,5
6586,518,5
6593,517,5
6600,514,5
6606,516,5
6614,509,5
6620,505,5
6626,516,5
6633,505,5
6640,499,5
6646,506,5
6653,524,5
6661,506,5
6666,506,5
6673,515,5
6680,497,5
6686,498,5
6693,497,5
6701,503,5
6706,506,5
6713,499,5
6720,496,5
6726,501,5
6732,503,5
6740,513,5
6746,516,5
6753,517,5
6760,516,5
6766,512,5
6773,512,5
6780,524,5
6787,505,5
6793,501,5
6800,506,5
6806,509,5
6813,511,5
6819,521,5
6827,521,5
6832,502,5
6840,508,5
6846,504,5
6853,500,5
6860,458,5
6866,415,5
6874,383,5
6880,407,5
6886,474,5
6893,514,5
6900,541,5
6906,546,5
6914,544,5
6919,546,5
6926,546,5
6933,546,5
6940,540,5
6946,527,5
6953,525,5
6960,513,5
6966,521,5
6973,525,5
6980,522,5
6986,527,5
6993,523,5
7001,527,5
7006,534,5
7013,509,5
7019,510,5
7026,515,5
7033,518,5
7041,516,5
7046,501,5
7053,495,5
7060,495,5
7066,492,5
7073,491,5
7080,493,5
7087,493,5
7093,496,5
7100,503,5
7105,500,5
7113,489,5
7120,474,5
7127,478,5
7133,481,5
7140,471,5
7146,475,5
7153,485,5
7160,496,5
7166,503,5
7173,506,5
7180,520,5
7186,528,5
7193,538,5
7200,544,5
7206,539,5
7214,535,5
7220,532,5
7226,540,5
7233,540,5
7240,535,5
7246,528,5
7254,528,5
7260,532,5
7266,539,5
7273,541,5
7280,536,5
7286,529,5
7292,524,5
7301,532,5
7306,532,5
7313,520,5
7320,526,5
7326,525,5
7333,508,5
7341,516,5
7346,528,5
7353,520,5
7360,504,5
7366,508,5
7373,508,5
7379,509,5
7386,515,5
7393,512,5
7400,510,5
7406,509,5
7413,508,5
7420,517,5
7427,517,5
7433,507,5
7440,502,5
7446,515,5
7453,516,5
7460,526,5
7465,525,5
7473,497,5
7480,505,5
7486,509,5
7493,508,5
7500,510,5
7506,525,5
7514,518,5
7520,498,5
7526,501,5
7533,514,5
7540,509,5
7546,511,5
7554,506,5
7560,504,5
7565,504,5
7573,498,5
7580,509,5
7586,520,5
7593,495,5
7600,492,5
7606,492,5
7613,494,5
7620,501,5
7626,502,5
7633,503,5
7641,517,5
7646,530,5
7652,526,5
7660,513,5
7666,519,5
7673,524,5
7681,523,5
7686,524,5
7693,514,5
7700,509,5
7706,510,5
7713,508,5
7720,508,5
7726,521,5
7733,518,5
7739,512,5
7746,497,5
7753,462,5
7760,426,5
7767,382,5
7773,378,5
7780,443,5
7786,497,5
7793,512,5
7800,514,5
7806,527,5
7813,533,5
7820,548,5
7825,548,5
7833,540,5
7840,534,5
7846,532,5
7854,534,5
7860,532,5
7866,532,5
7873,530,5
7880,535,5
7886,533,5
7894,509,5
7900,513,5
7906,513,5
7912,507,5
7920,515,5
7926,515,5
7933,513,5
7941,519,5
7946,514,5
7953,504,5
7960,501,5
7966,504,5
7973,496,5
7981,488,5
7986,494,5
7993,498,5
7999,493,5
8006,485,5
8013,479,5
8020,481,5
8026,483,5
8033,492,5
8040,491,5
8046,490,5
8053,499,5
8060,498,5
8067,502,5
8073,508,5
8080,521,5
8086,530,5
8093,529,5
8100,539,5
8107,546,5
8113,526,5
8120,531,5
8126,534,5
8133,529,5
8140,524,5
8146,526,5
8154,525,5
8160,524,5
8166,518,5
8172,515,5
8180,529,5
8186,518,5
8194,507,5
8200,513,5
8206,523,5
8213,506,5
8220,512,5
8226,517,5
8233,511,5
8240,522,5
8246,530,5
8253,516,5
8259,503,5
8266,507,5
8273,507,5
8281,511,5
8286,516,5
8293,528,5
8300,498,5
8306,497,5
8313,500,5
8321,504,5
8326,505,5
8333,508,5
8340,509,5
8346,515,5
8353,504,5
8360,514,5
8366,511,5
8373,511,5
8380,507,5
8386,529,5
8393,493,5
8400,501,5
8407,511,5
8413,518,5
8420,529,5
8426,542,5
8433,514,5
8440,507,5
8445,523,5
8453,499,5
8460,488,5
8466,489,5
8473,481,5
8480,498,5
8486,492,5
8494,496,5
8500,503,5
8506,506,5
8513,495,5
8520,503,5
8526,515,5
8532,498,5
8540,498,5
8545,492,5
8553,474,5
8560,469,5
8566,479,5
8573,485,5
8580,488,5
8586,498,5
8593,489,5
8600,492,5
8606,477,5
8613,485,5
8621,493,5
8626,480,5
8632,479,5
8640,486,5
8646,499,6
8653,501,6
8660,500,6
8666,480,6
8673,478,6
8680,486,6
8686,488,6
8693,486,6
8700,488,6
8707,496,6
8713,503,6
8719,505,6
8726,505,6
8733,523,6
8740,522,6
8747,521,6
8753,504,6
8760,499,6
8766,544,6
8773,519,6
8780,520,6
8786,518,6
8794,515,6
8800,519,6
8805,521,6
8813,512,6
8820,490,6
8826,514,6
8834,512,6
8840,481,6
8846,395,6
8853,371,6
8860,373,6
8866,431,6
8873,485,6
8880,522,6
8886,546,6
8893,570,6
8900,527,6
8905,542,6
8913,545,6
8921,530,6
8926,528,6
8933,522,6
8940,552,6
8946,549,6
8953,549,6
8961,546,6
8966,546,6
8973,522,6
8980,526,6
8986,548,6
8992,516,6
9000,503,6
9007,509,6
9013,515,6
9020,503,6
9026,508,6
9033,533,6
9040,518,6
9047,525,6
9053,514,6
9060,495,6
9066,512,6
9073,480,6
9079,480,6
9086,479,6
9093,473,6
9100,491,6
9106,497,6
9113,478,7
9120,473,7
9126,486,7
9134,516,7
9140,528,7
9146,518,7
9153,497,7
9160,495,7
9165,490,7
9174,474,7
9180,487,7
9186,539,7
9193,546,7
9200,590,7
9206,560,7
9213,556,7
9221,558,7
9226,559,7
9233,578,7
9240,527,7
9246,490,7
9252,518,7
9261,546,7
9266,536,7
9273,521,7
9280,527,7
9286,548,7
9293,523,7
9300,525,7
9306,528,7
9313,501,7
9320,531,7
9326,525,7
9333,508,7
9339,512,7
9347,521,7
9353,543,7
9360,547,7
9366,476,7
9373,491,7
9380,512,7
9387,491,7
9393,512,7
9400,520,7
9406,514,7
9413,514,7
9420,508,7
9426,517,7
9434,523,7
9440,518,7
9446,517,7
9453,555,7
9460,511,7
9466,497,7
9474,532,7
9480,496,7
9486,541,7
9493,479,7
9500,494,7
9506,518,7
9512,509,7
9520,535,7
9526,499,7
9533,526,7
9540,507,7
9546,534,7
9553,511,7
9561,485,7
9566,535,7
9573,471,7
9580,485,7
9586,509,7
9593,520,7
9600,523,7
9606,543,7
9613,482,7
9620,474,7
9626,482,7
9633,509,7
9640,525,7
9646,533,7
9653,546,7
9660,489,7
9666,448,7
9673,499,7
9680,565,7
9686,553,7
9693,522,7
9700,504,7
9706,513,7
9713,554,7
9720,550,7
9726,480,7
9733,468,7
9740,505,7
9746,507,7
9753,481,7
9760,415,7
9766,358,7
9774,378,7
9780,434,7
9785,513,7
9793,583,7
9800,518,7
9806,542,7
9814,558,7
9820,572,7
9826,550,7
9833,509,7
9840,528,7
9846,499,7
9853,532,7
9860,516,7
9866,525,7
9872,464,7
9880,540,7
9886,559,7
9893,521,7
9901,474,7
9906,480,7
9913,474,7
9920,529,7
9926,528,7
9933,520,7
9940,516,7
9946,525,7
9953,508,7
9960,484,7
9966,500,7
9972,469,7
9980,452,7
9987,502,7
9993,497,7
10000,500,7
10006,481,7
10013,488,7
10020,464,7
10027,474,7
10033,467,7
10040,508,7
10046,496,7
10053,468,7
10059,490,7
10066,527,7
10074,536,7
10080,552,7
10086,540,7
10093,490,7
10100,509,7
10106,549,6
10114,562,6
10120,562,6
10126,582,6
10133,557,6
10140,544,6
10145,479,6
10153,532,6
10160,560,6
10166,567,6
10173,543,6
10180,503,6
10186,530,6
10193,554,6
10201,508,6
10206,494,6
10213,537,6
10220,502,6
10226,560,6
10232,524,6
10241,549,6
10246,513,6
10253,486,6
10260,516,6
10266,497,6
10273,521,6
10280,534,6
10287,498,6
10293,511,6
10300,533,6
10306,489,6
10313,529,6
10319,474,6
10327,534,6
10333,522,6
10340,512,6
10346,503,6
10353,508,6
10360,525,6
10366,506,6
10373,505,6
10380,511,6
10386,511,6
10393,510,6
10400,521,6
10405,510,6
10414,499,6
10420,496,6
10426,535,6
10433,537,6
10440,527,6
10446,520,6
10454,525,6
10460,532,6
10466,535,6
10473,549,6
10480,501,6
10486,500,6
10492,546,6
10501,474,6
10506,505,6
10513,525,6
10520,524,6
10526,504,6
10533,492,6
10541,497,6
10546,510,6
10553,515,6
10560,494,6
10566,474,6
10573,493,6
10580,501,6
10586,531,6
10592,500,6
10600,498,6
10606,500,6
10613,504,6
10620,513,6
10627,507,6
10633,515,6
10640,508,6
10646,492,6
10653,491,6
10660,514,6
10667,512,6
10673,509,6
10679,505,6
10686,515,6
10693,503,6
10700,489,6
10706,463,6
10714,406,6
10720,348,6
10726,353,6
10733,417,6
10740,487,6
10746,502,6
10754,526,6
10760,522,6
10766,542,6
10773,535,6
10780,543,6
10786,525,6
10793,521,6
10800,529,6
10806,545,6
10813,533,6
10820,541,6
10826,525,6
10833,481,6
10841,498,6
10846,540,6
10853,567,6
10860,548,6
10865,488,6
10873,475,6
10881,478,6
10886,476,6
10893,510,6
10900,502,6
10906,495,6
10913,492,6
10920,522,6
10926,525,6
10933,491,6
10940,492,6
10946,507,6
10952,502,6
10960,505,6
10967,467,6
10973,484,6
10980,502,6
10986,473,6
10993,457,6
11000,480,6
11006,508,6
11013,526,6
11020,531,6
11026,503,6
11033,504,6
11039,534,6
11046,553,6
11054,449,6
11060,416,6
11066,459,6
11073,524,6
11080,383,6
11086,472,6
11094,639,6
11100,644,6
11106,633,6
11113,619,6
11120,490,6
11125,495,6
11133,585,6
11141,593,6
11146,570,6
11153,528,6
11160,509,6
11166,484,6
11173,485,6
11181,541,6
11186,594,6
11193,428,6
11200,287,6
11206,416,6
11212,445,6
11220,543,6
11226,733,6
11233,771,6
11240,694,6
11246,649,6
11253,580,6
11260,418,6
11267,364,6
11273,462,6
11280,395,6
11286,392,6
11293,601,6
11299,594,6
11307,605,6
11313,504,6
11320,375,6
11326,544,6
11333,693,6
11340,649,6
11346,626,6
11354,618,6
11360,588,6
11366,528,6
11373,242,6
11380,280,6
11385,610,6
11394,662,6
11400,619,6
11406,644,6
11413,587,6
11420,494,6
11426,481,6
11433,495,6
11440,336,6
11446,104,6
11453,394,6
11460,338,6
11466,542,6
11472,831,6
11481,711,6
11486,512,6
11493,384,6
11500,550,6
11506,371,6
11513,568,6
11521,811,6
11526,694,6
11533,450,6
11540,123,6
11546,283,6
11553,629,6
11559,445,6
11567,229,6
11573,843,6
11580,881,6
11586,628,6
11593,557,6
11600,528,6
11607,482,6
11613,491,6
11620,489,6
11626,366,6
11633,296,6
11640,523,6
11646,572,6
11653,521,6
11659,461,6
11666,387,6
11673,340,6
11680,421,6
11686,532,6
11694,465,6
11700,452,6
11706,455,6
11713,453,6
11720,469,6
11726,479,6
11734,485,6
11740,483,6
11746,465,6
11753,486,6
11760,464,6
11766,471,6
11773,460,6
11780,472,6
11786,472,6
11793,484,6
11800,478,6
11806,467,6
11813,433,6
11821,431,6
11826,490,6
11833,507,6
11840,516,6
11845,507,6
11853,501,6
11860,523,6
11866,513,6
11873,478,6
11880,479,6
11886,477,6
11893,466,6
11900,460,6
11907,453,6
11913,468,6
11919,485,6
11926,489,6
11933,496,6
11940,486,6
11947,479,6
11953,481,6
11960,489,6
11966,493,6
11973,504,6
11980,522,6
11986,524,6
11994,524,6
12000,537,6
12006,539,6
12013,541,6
12019,526,6
12026,538,6
12034,548,6
12040,523,6
12046,511,6
12053,504,6
12060,540,6
12066,552,6
12073,511,6
12080,517,6
12086,525,6
12093,509,6
12100,521,6
12106,507,6
12113,486,6
12121,505,6
12126,509,6
12133,498,6
12140,527,6
12146,518,6
12153,506,6
12161,515,6
12166,509,6
12173,507,6
12180,491,6
12186,493,6
12192,487,6
12200,507,6
12207,508,6
12213,506,6
12220,497,6
12226,496,6
12233,499,6
12240,506,6
12247,499,6
12253,513,6
12260,494,6
12266,497,6
12273,506,6
12280,514,6
12286,499,6
12292,513,6
12300,511,6
12306,507,6
12313,495,6
12320,508,6
12326,510,6
12334,498,6
12340,487,6
12346,492,6
12353,506,6
12360,515,6
12366,497,6
12374,497,6
12380,512,6
12386,506,6
12392,513,6
12400,506,6
12406,518,6
12413,500,6
12421,510,6
12426,503,6
12433,479,6
12440,501,6
12446,503,6
12453,496,6
12461,496,6
12466,500,6
12473,499,6
12479,515,6
12486,514,6
12493,520,6
12500,496,6
12506,495,6
12513,504,6
12520,516,6
12526,516,6
12533,528,6
12540,517,6
12547,522,6
12553,527,6
12560,521,6
12565,513,6
12573,517,6
12580,527,6
12587,514,6
12593,477,6
12600,462,6
12606,453,6
12613,400,6
12620,426,6
12626,447,6
12634,512,6
12640,543,6
12646,551,6
12652,561,6
12660,511,6
12666,535,6
12674,544,6
12680,544,6
12686,561,6
12693,564,6
12700,529,6
12706,531,6
12713,530,6
12720,528,6
12726,515,6
12733,451,6
12739,486,6
12746,548,6
12753,521,6
12761,554,6
12766,556,6
12773,538,6
12780,516,6
12786,511,6
12793,490,6
12801,449,6
12806,465,6
12813,525,6
12820,515,6
12825,524,6
12833,506,6
12840,497,6
12846,492,6
12853,495,6
12860,479,6
12866,473,6
12873,462,6
12880,442,6
12887,475,6
12893,527,6
12900,527,6
12906,529,6
12912,526,6
12920,520,6
12926,520,6
12933,515,6
12940,552,6
12946,557,6
12953,565,6
12960,555,6
12966,551,6
12974,579,6
12980,556,6
12986,542,6
12993,550,6
12999,533,6
13006,523,6
13014,480,6
13020,553,6
13026,584,6
13033,566,6
13040,556,6
13046,536,6
13053,553,6
13060,527,6
13066,531,6
13073,510,6
13080,496,6
13086,511,6
13093,504,6
13101,525,6
13106,559,6
13113,528,6
13120,515,6
13126,515,6
13133,500,6
13140,521,6
13146,508,6
13153,498,6
13160,484,6
13166,476,6
13172,516,6
13180,545,6
13187,537,6
13193,517,6
13200,522,6
13206,511,6
13213,503,6
13220,508,6
13227,503,6
13233,506,6
13240,514,6
13246,512,6
13253,512,6
13259,510,6
13266,476,6
13274,521,6
13280,540,6
13286,523,6
13293,502,6
13300,508,6
13306,522,6
13314,509,6
13320,501,6
13326,510,6
13333,506,6
13340,472,6
13345,510,6
13353,536,6
13360,530,6
13366,535,6
13373,526,6
13380,506,6
13386,506,6
13393,498,6
13401,490,6
13406,520,6
13413,496,6
13420,465,6
13426,543,6
13432,541,6
13441,520,6
13446,514,6
13453,514,6
13460,500,6
13466,505,6
13473,504,6
13480,502,6
13487,507,6
13493,507,6
13500,528,6
13506,519,6
13513,510,6
13519,491,6
13527,513,6
13533,534,6
13540,533,6
13546,521,6
13553,521,6
13560,528,6
13566,533,6
13573,527,6
13580,521,6
13586,509,6
13593,481,6
13600,478,6
13605,421,6
13614,382,6
13620,423,6
13626,448,6
13633,499,6
13640,533,6
13646,531,6
13654,542,6
13660,556,6
13666,555,6
13673,545,6
13680,553,6
13686,543,6
13693,543,6
13701,539,6
13705,536,6
13713,540,6
13720,539,6
13726,526,6
13733,513,6
13741,524,6
13746,530,6
13753,524,6
13760,516,6
13766,514,6
13773,510,6
13780,513,6
13786,507,6
13793,500,6
13800,511,6
13805,511,6
13813,491,6
13820,471,6
13827,496,6
13833,510,6
13840,498,6
13846,490,6
13853,487,6
13860,486,6
13867,477,6
13873,478,6
13880,480,6
13886,478,6
13892,468,6
13900,482,6
13906,495,6
13914,509,6
13920,498,6
13926,516,6
13933,535,6
13940,540,6
13946,539,6
13954,547,6
13960,547,6
13966,542,6
13973,536,6
13979,527,6
13986,530,5
13992,531,5
14000,537,5
14006,539,5
14013,537,5
14020,539,5
14026,530,5
14033,524,5
14041,522,5
14046,520,5
14053,514,5
14060,515,5
14066,521,5
14073,510,5
14080,508,5
14086,501,5
14093,504,5
14100,516,5
14106,506,5
14113,510,5
14120,500,5
14126,494,5
14133,493,5
14140,508,5
14146,513,5
14153,508,5
14160,509,5
14166,499,5
14173,484,5
14180,511,5
14186,511,5
14193,509,5
14200,507,5
14206,500,5
14213,494,5
14220,496,5
14226,500,5
14233,501,5
14240,504,5
14246,500,5
14254,495,5
14260,497,5
14265,503,5
14273,502,5
14280,491,5
14286,494,5
14294,505,5
14300,510,5
14306,508,5
14313,506,5
14320,505,5
14326,495,5
14333,501,5
14340,507,5
14346,490,5
14352,470,5
14360,475,5
14366,514,5
14373,523,5
14381,518,5
14386,484,5
14393,472,5
14400,501,5
14406,523,5
14413,515,5
14420,503,5
14426,503,5
14433,511,5
14439,512,5
14446,512,5
14453,515,5
14460,521,5
14467,527,5
14473,519,5
14480,525,5
14486,523,5
14493,503,5
14500,504,5
14507,515,5
14513,525,5
14520,524,5
14526,519,5
14533,503,5
14539,494,5
14546,509,5
14554,534,5
14560,530,5
14566,517,5
14573,491,5
14580,445,5
14586,411,5
14594,383,5
14600,411,5
14606,469,5
14613,509,5
14620,547,5
14625,551,5
14633,551,5
14640,546,5
14646,539,5
14653,534,5
14660,533,5
14666,534,5
14673,538,5
14681,527,5
14686,523,5
14693,523,5
14700,525,5
14706,519,5
14712,518,5
14721,521,5
14726,515,5
14733,508,5
14740,509,5
14746,510,5
14753,507,5
14760,507,5
14767,507,5
14773,490,5
14780,489,5
14786,496,5
14793,503,5
14800,504,5
14807,502,5
14813,495,5
14820,495,5
14825,484,5
14833,478,5
14840,478,5
14846,478,5
14853,472,5
14860,476,5
14866,479,5
14873,481,5
14880,491,5
14886,505,5
14894,515,5
14900,525,5
14906,528,5
14913,534,5
14920,545,5
14926,548,5
14934,548,5
14940,539,5
14946,534,5
14953,533,5
14960,536,5
14966,533,5
14973,538,5
14981,532,5
14986,531,5
14993,515,5
15000,515,5
15006,515,5
15012,522,5
15021,522,5
15026,522,5
15033,528,5
15040,525,5
15046,520,5
15053,521,5
15060,522,5
15066,516,5
15073,510,5
15080,513,5
15086,516,5
15093,515,5
15100,516,5
15107,510,5
15113,506,5
15120,516,5
15125,517,5
15133,512,5
15140,510,5
15147,508,5
15153,506,5
15160,508,5
15166,513,5
15173,508,5
15180,505,5
15186,507,5
15194,509,5
15200,508,5
15206,504,5
15212,502,5
15220,498,5
15226,512,5
15234,516,5
15240,515,5
15246,513,5
15253,509,5
15260,512,5
15266,505,5
15273,503,5
15280,504,5
15286,501,5
15293,498,5
15300,499,5
15306,494,5
15312,505,5
15321,516,5
15326,512,5
15333,504,5
15340,508,5
15346,504,5
15353,502,5
15361,503,5
15366,502,5
15373,499,5
15380,497,5
15386,501,5
15393,503,5
15399,502,5
15407,501,5
15413,492,5
15420,493,5
15426,498,5
15433,503,5
15440,505,5
15447,500,5
15453,505,5
15460,510,5
15466,508,5
15473,511,5
15480,516,5
15485,515,5
15493,512,5
15499,510,5
15506,506,5
15513,511,5
15520,522,5
15526,506,5
15534,508,5
15540,514,5
15546,515,5
15553,516,5
15560,518,5
15566,518,5
15574,504,5
15580,484,5
15585,459,5
15593,416,5
15600,368,5
15606,372,5
15613,439,5
15620,494,5
15626,532,5
15633,537,5
15640,542,5
15646,546,5
15653,552,5
15661,549,5
15666,541,5
15673,537,5
15680,536,5
15685,529,5
15693,529,5
15700,527,5
15706,522,5
15713,517,5
15720,516,5
15726,515,5
15733,514,5
15740,513,5
15747,506,5
15753,503,5
15760,507,5
15766,508,5
15772,501,5
15780,495,5
15787,493,5
15793,493,5
15800,487,5
15806,485,5
15813,489,5
15820,488,5
15826,481,5
15834,477,5
15840,479,5
15846,475,5
15853,476,5
15859,478,5
15866,475,5
15874,478,5
15880,481,5
15886,480,5
15893,484,5
15900,496,5
15906,519,5
15913,517,5
15920,521,5
15926,523,5
15933,534,5
15940,548,5
15946,547,5
15953,544,5
15960,541,5
15966,537,5
15973,534,5
15980,531,5
15986,526,5
15993,532,5
16001,536,5
16006,533,5
16013,536,5
16020,534,5
16026,530,5
16033,532,5
16040,529,5
16047,516,5
16053,516,5
16060,523,5
16066,520,5
16073,517,5
16080,510,5
16087,515,5
16093,516,5
16100,514,5
16106,517,5
16113,516,5
16120,519,5
16126,513,5
16133,509,5
16140,508,5
16146,506,5
16153,507,5
16160,513,5
16166,505,5
16174,508,5
16180,512,5
16186,504,5
16193,500,5
16200,508,5
16206,509,5
16214,507,5
16220,508,5
16226,508,5
16232,506,5
16240,508,5
16246,509,5
16253,505,5
16261,503,5
16266,498,5
16273,493,5
16280,501,5
16286,509,5
16293,511,5
16301,513,5
16306,511,5
16313,506,5
16319,510,5
16326,509,5
16333,509,5
16340,504,5
16346,504,5
16353,512,5
16360,513,5
16366,510,5
16373,507,5
16380,507,5
16387,505,5
16393,505,5
16400,503,5
16405,501,5
16413,500,5
16420,504,5
16427,505,5
16433,511,5
16440,505,5
16446,495,5
16453,497,5
16460,494,5
16466,492,5
16474,494,5
16480,497,5
16486,502,5
16492,503,5
16500,515,5
16506,513,5
16514,510,5
16520,519,5
16526,522,5
16533,521,5
16540,517,5
16546,512,5
16553,513,5
16560,513,5
16566,512,5
16573,510,5
16579,510,5
16586,509,5
16593,510,5
16601,511,5
16606,492,5
16613,456,5
16620,407,5
16626,366,5
16633,380,5
16641,455,5
16646,505,5
16653,529,5
16660,536,5
16666,535,5
16673,539,5
16679,528,5
16687,509,5
16693,519,5
16700,526,5
16706,530,5
16713,547,5
16720,539,5
16727,541,5
16733,538,5
16740,532,5
16746,528,5
16753,520,5
16760,520,5
16766,518,5
16773,516,5
16780,522,5
16786,516,5
16793,513,5
16800,508,5
16806,506,5
16814,504,5
16820,501,5
16826,493,5
16833,488,5
16840,493,5
16846,490,5
16852,492,5
16860,490,5
16866,485,5
16873,484,5
16880,478,5
16886,476,5
16893,479,5
16900,478,5
16906,478,5
16913,479,5
16920,474,5
16926,487,5
16933,512,5
16940,532,5
16946,531,5
16952,536,5
16960,542,5
16966,540,5
16973,541,5
16980,537,5
16986,532,5
16993,520,5
17000,525,5
17006,546,5
17013,547,5
17020,543,5
17026,537,5
17033,537,5
17039,533,5
17046,526,5
17053,523,5
17060,531,5
17067,530,5
17073,524,5
17080,524,5
17086,517,5
17093,517,5
17100,514,5
17106,513,5
17114,515,5
17120,511,5
17125,509,5
17133,506,5
17140,511,5
17146,516,5
17154,516,5
17160,511,5
17166,510,5
17173,512,5
17180,512,5
17186,510,5
17193,515,5
17200,515,5
17206,514,5
17213,512,5
17220,508,5
17226,499,5
17233,497,5
17241,512,5
17246,507,5
17253,499,5
17260,510,5
17266,509,5
17273,506,5
17281,504,5
17286,502,5
17293,505,5
17299,503,5
17306,500,5
17312,501,5
17320,501,5
17327,491,5
17333,496,5
17340,508,5
17346,512,5
17353,511,5
17360,509,5
17367,505,5
17373,505,5
17380,508,5
17386,505,5
17393,506,5
17399,500,5
17406,503,5
17413,501,5
17420,501,5
17426,502,5
17433,517,5
17440,519,5
17446,516,5
17454,510,5
17460,505,5
17466,503,5
17473,500,5
17480,489,5
17485,486,5
17494,502,5
17500,494,5
17506,496,5
17513,506,5
17520,499,5
17526,503,5
17533,510,5
17541,507,5
17546,507,5
17553,511,5
17560,514,5
17566,515,5
17573,515,5
17581,516,5
17586,511,5
17593,512,5
17600,516,5
17606,515,5
17613,524,5
17620,522,5
17626,516,5
17633,509,5
17640,512,5
17646,513,5
17653,512,5
17660,511,5
17667,500,5
17672,480,5
17680,432,5
17686,383,5
17693,365,5
17700,426,5
17707,490,5
17713,534,5
17720,541,5
17726,539,5
17733,541,5
17740,540,5
17746,537,5
17754,537,5
17760,532,5
17766,528,5
17772,528,5
17780,530,5
17786,516,5
17794,521,5
17800,527,5
17806,525,5
17813,525,5
17820,517,5
17826,511,5
17833,516,5
17840,509,5
17846,501,5
17853,503,5
17859,500,5
17866,501,5
17873,509,5
17881,502,5
17886,495,5
17893,489,5
17900,488,5
17906,481,5
17913,488,5
17921,490,5
17926,481,5
17933,482,5
17940,485,5
17945,483,5
17953,484,5
17960,495,5
17966,490,5
17973,488,5
17980,494,5
17986,498,5
17993,510,5
18000,521,5
18007,525,5
18013,532,5
18020,536,5
18026,536,5
18033,542,5
18040,544,5
18046,550,5
18053,546,5
18060,541,5
18066,535,5
18073,541,5
18080,538,5
18086,532,5
18094,540,5
18100,542,5
18106,537,5
18113,530,5
18120,523,5
18126,512,5
18132,515,5
18140,520,5
18146,513,5
18153,515,5
18160,515,5
18166,513,5
18173,509,5
18180,516,5
18186,517,5
18193,512,5
18200,509,5
18206,511,5
18213,515,5
18220,512,5
18226,510,5
18233,511,5
18240,513,5
18246,511,5
18253,507,5
18260,508,5
18266,508,5
18273,515,5
18280,523,5
18286,515,5
18293,511,5
18300,513,5
18306,512,5
18313,521,5
18320,521,5
18326,507,5
18333,508,5
18340,507,5
18347,510,5
18353,511,5
18360,510,5
18366,505,5
18373,502,5
18380,510,5
18386,508,5
18393,509,5
18400,508,5
18406,504,5
18413,507,5
18420,500,5
18426,495,5
18434,496,5
18440,496,5
18446,504,5
18453,508,5
18460,512,5
18466,509,5
18473,511,5
18480,510,5
18486,512,5
18492,513,5
18500,511,5
18506,504,5
18513,505,5
18521,505,5
18526,503,5
18533,512,5
18540,512,5
18546,521,5
18553,516,5
18561,508,5
18566,510,5
18573,506,5
18579,489,5
18586,465,5
18593,423,5
18600,386,5
18607,409,5
18613,457,5
18620,522,5
18626,537,5
18633,545,5
18640,546,5
18647,538,5
18653,533,5
18660,540,5
18665,542,5
18673,516,5
18680,525,5
18686,520,4
18693,519,4
18700,518,4
18706,516,4
18713,519,4
18720,520,4
18726,513,4
18734,518,4
18740,518,4
18746,514,4
18752,511,4
18760,513,4
18766,507,4
18774,506,4
18780,506,4
18786,506,4
18793,502,4
18800,493,4
18806,493,4
18813,500,4
18821,484,4
18826,480,4
18833,486,4
18839,484,4
18846,480,4
18853,480,4
18861,482,4
18866,485,4
18873,482,4
18880,480,4
18886,487,4
18893,509,4
18900,518,4
18906,521,4
18913,525,4
18920,532,4
18925,537,4
18933,546,4
18940,537,4
18947,532,4
18953,533,4
18960,535,4
18966,537,4
18973,544,4
18980,531,4
18987,525,4
18993,532,4
19000,535,4
19006,530,4
19013,525,4
19020,524,4
19026,519,4
19034,522,4
19040,526,4
19046,523,4
19053,519,4
19060,515,4
19066,520,4
19074,521,4
19080,521,4
19086,520,4
19093,524,4
19100,520,4
19106,513,4
19112,518,4
19120,523,4
19126,509,4
19133,510,4
19140,508,4
19146,511,4
19153,519,4
19161,517,4
19166,515,4
19173,516,4
19180,518,4
19186,517,4
19193,519,4
19200,516,4
19206,512,4
19213,511,4
19220,517,4
19226,516,4
19233,509,4
19240,510,4
19246,508,4
19253,510,4
19260,501,4
19266,501,4
19273,499,4
19280,504,4
19286,497,4
19293,507,4
19299,505,4
19306,506,4
19313,516,4
19320,519,4
19326,526,4
19333,524,4
19340,516,4
19346,512,4
19353,505,4
19360,512,4
19366,522,4
19374,515,4
19380,506,4
19385,507,4
19393,513,4
19400,509,4
19406,501,4
19414,493,4
19420,473,4
19426,433,4
19433,404,4
19440,386,4
19446,421,4
19453,491,4
19460,522,4
19466,523,4
19473,531,4
19480,539,4
19486,541,4
19493,531,4
19501,526,4
19506,523,4
19513,525,4
19520,531,4
19526,527,4
19533,533,4
19540,529,4
19546,523,4
19553,518,4
19560,516,4
19566,509,4
19572,512,4
19580,519,4
19587,504,4
19593,505,4
19600,516,4
19606,512,4
19613,505,4
19620,502,4
19627,490,4
19633,494,4
19640,494,4
19646,492,4
19653,490,4
19659,484,4
19666,478,4
19674,484,4
19680,482,4
19686,482,4
19693,484,4
19700,486,4
19706,484,4
19714,484,4
19720,488,4
19726,498,4
19733,512,4
19740,525,4
19746,526,4
19753,535,4
19760,537,4
19766,546,4
19773,539,4
19780,535,4
19786,540,4
19793,543,4
19801,535,4
19806,532,4
19813,544,4
19820,540,4
19826,532,4
19832,527,4
19841,533,4
19846,524,4
19853,527,4
19860,527,4
19866,516,4
19873,519,4
19880,531,4
19887,518,4
19893,513,4
19900,518,4
19906,520,4
19913,521,4
19919,518,4
19927,505,4
19933,508,4
19940,498,4
19946,505,4
19953,515,4
19960,513,4
19966,510,4
19973,519,4
19980,509,4
19986,511,4
19993,510,4
20000,510,4
20005,501,4
20014,507,4
20020,511,4
20026,502,4
20033,511,4
20040,514,4
20046,524,4
20054,510,4
20060,506,4
20066,509,4
20073,524,4
20080,521,4
20086,511,4
20093,512,4
20101,517,4
20106,516,4
20113,513,4
20120,509,4
20126,504,4
20133,505,4
20141,507,4
20146,506,4
20153,502,4
20160,502,4
20166,502,4
20173,507,4
20180,507,4
20186,506,4
20193,513,4
20200,515,4
20206,506,4
20213,511,4
20220,517,4
20227,513,4
20233,520,4
20240,521,4
20246,519,4
20253,525,4
20260,517,4
20267,515,4
20273,516,4
20280,510,4
20286,507,4
20292,519,4
20300,517,4
20306,510,4
20314,497,4
20320,477,4
20326,436,4
20333,374,4
20340,366,4
20346,421,4
20354,491,4
20360,523,4
20366,528,4
20373,537,4
20379,546,4
20386,544,4
20393,542,4
20400,537,4
20406,532,4
20413,533,4
20420,528,4
20426,527,4
20433,531,4
20441,525,4
20446,521,4
20453,526,4
20460,520,4
20466,511,4
20473,511,4
20481,515,4
20486,509,4
20493,507,4
20500,501,4
20506,511,4
20513,517,4
20520,500,4
20526,491,4
20533,490,4
20540,485,4
20546,488,4
20553,496,4
20560,487,4
20567,483,4
20573,485,4
20580,476,4
20586,476,4
20593,475,4
20600,473,4
20606,474,4
20613,484,4
20620,497,4
20626,501,4
20633,511,4
20639,515,4
20646,519,4
20654,529,4
20660,526,4
20666,527,4
20673,535,4
20680,534,4
20686,529,4
20694,533,4
20700,534,4
20706,533,4
20713,529,4
20720,533,5
20726,531,5
20733,527,5
20741,525,5
20746,522,5
20753,522,5
20760,524,5
20766,521,5
20773,515,5
20781,510,5
20786,516,5
20793,520,5
20800,513,5
20806,521,5
20813,515,5
20820,511,5
20825,510,5
20833,514,5
20840,518,5
20846,518,5
20853,515,5
20860,513,5
20867,508,5
20873,509,5
20880,508,5
20886,506,5
20893,505,5
20900,502,5
20907,509,5
20912,517,5
20920,513,5
20926,522,5
20933,513,5
20940,503,5
20946,499,5
20954,504,5
20960,506,5
20966,503,5
20973,502,5
20980,500,5
20986,500,5
20994,508,5
20999,507,5
21006,502,5
21012,499,5
21020,500,5
21026,508,5
21033,515,5
21040,512,5
21046,506,5
21053,508,5
21060,502,5
21066,500,5
21073,504,5
21081,493,5
21086,496,5
21093,497,5
21099,493,5
21106,493,5
21113,504,5
21121,506,5
21126,503,5
21133,504,5
21140,506,5
21146,504,5
21153,504,5
21160,504,5
21167,504,5
21173,503,5
21180,497,5
21185,496,5
21193,500,5
21200,502,5
21207,500,5
21213,501,5
21220,508,5
21226,512,5
21233,505,5
21240,502,5
21246,500,5
21253,498,5
21260,495,5
21266,497,5
21272,498,5
21280,500,5
21286,500,5
21294,505,5
21300,501,5
21306,496,5
21313,504,5
21320,507,5
21326,519,5
21334,521,5
21340,519,5
21346,515,5
21353,516,5
21359,515,5
21366,511,5
21373,514,5
21380,514,5
21386,509,5
21393,514,5
21400,509,5
21406,515,5
21413,513,5
21421,494,5
21426,480,5
21433,450,5
21440,394,5
21445,364,5
21453,396,5
21460,463,5
21466,499,5
21473,527,5
21480,541,5
21486,540,5
21493,543,5
21500,537,5
21507,536,5
21513,541,5
21520,537,5
21526,535,5
21533,537,5
21540,533,5
21547,525,5
21553,526,5
21560,519,5
21566,520,5
21573,523,5
21580,515,5
21586,515,5
21594,520,5
21600,516,5
21606,510,5
21613,509,5
21619,502,5
21626,500,5
21634,500,5
21640,500,5
21646,501,5
21653,504,5
21660,489,5
21666,479,5
21673,479,5
21680,484,5
21686,485,5
21693,490,5
21700,483,5
21705,469,5
21713,475,5
21721,481,5
21726,479,5
21733,488,5
21740,494,5
21746,499,5
21753,509,5
21761,514,5
21766,519,5
21773,528,5
21780,533,5
21786,542,5
21793,550,5
21800,543,5
21807,542,5
21813,538,5
21820,536,5
21826,534,5
21833,526,5
21840,528,5
21847,527,5
21853,526,5
21860,530,5
21866,523,5
21873,514,5
21880,514,5
21886,519,5
21892,520,5
21900,523,5
21906,516,5
21913,518,5
21920,517,5
21926,516,5
21934,513,5
21940,511,5
21946,515,5
21953,518,5
21960,511,5
21966,502,5
21974,499,5
21980,513,5
21986,512,5
21993,510,5
22000,509,5
22006,509,5
22013,510,5
22021,503,5
22026,500,5
22033,506,5
22040,507,5
22046,507,5
22053,509,5
22061,514,5
22065,513,5
22073,510,5
22080,506,5
22086,504,5
22093,511,5
22100,509,5
22106,505,5
22113,510,5
22120,507,5
22126,503,5
22133,506,5
22140,504,5
22147,502,5
22152,508,5
22160,502,5
22166,514,5
22173,515,5
22180,510,5
22187,506,5
22193,508,5
22200,509,5
22206,506,5
22213,508,5
22220,508,5
22226,506,5
22234,503,5
22240,504,5
22246,501,5
22252,510,5
22260,513,5
22266,499,5
22274,494,5
22280,497,5
22286,504,5
22293,503,5
22300,500,5
22306,498,5
22313,499,5
22320,504,5
22326,507,5
22333,498,5
22339,504,5
22346,511,5
22353,511,5
22361,510,5
22366,510,5
22373,511,5
22380,508,5
22386,495,5
22393,495,5
22401,509,5
22406,502,5
22413,500,5
22420,500,5
22425,496,5
22433,499,5
22440,505,5
22446,508,5
22453,518,5
22460,513,5
22466,512,5
22473,519,5
22480,512,5
22487,520,5
22493,527,5
22500,527,4
22506,522,5
22513,523,4
22520,518,4
22526,515,4
22533,521,4
22540,519,4
22546,519,4
22553,515,4
22560,518,4
22566,532,4
22574,511,4
22580,476,4
22586,437,4
22593,390,4
22599,382,4
22606,426,4
22614,502,4
22620,525,4
22626,531,4
22633,533,4
22640,534,4
22646,537,4
22653,512,4
22660,505,4
22666,525,4
22673,545,4
22680,539,4
22686,526,4
22693,528,4
22701,532,4
22706,536,4
22713,530,4
22720,522,4
22726,517,4
22733,516,4
22740,509,4
22746,514,4
22753,511,4
22760,506,4
22766,504,4
22773,505,4
22780,496,4
22787,489,4
22793,504,4
22800,499,4
22806,491,4
22813,494,4
22820,493,4
22827,486,4
22833,487,4
22840,483,4
22846,483,4
22853,482,4
22859,474,4
22866,465,4
22873,478,4
22880,488,4
22886,494,4
22893,501,4
22900,501,4
22906,515,4
22914,532,4
22920,536,4
22926,535,4
22933,531,4
22940,534,4
22946,532,4
22953,547,4
22959,546,4
22966,541,4
22973,539,4
22980,537,4
22986,541,4
22993,537,4
23001,531,4
23006,531,4
23013,531,4
23020,531,4
23026,525,4
23033,522,4
23041,521,4
23046,520,4
23053,519,4
23060,521,4
23066,525,4
23073,526,4
23080,521,4
23087,518,4
23093,519,4
23100,511,4
23106,506,4
23113,516,4
23120,515,4
23127,513,4
23132,510,4
23140,503,4
23146,506,4
23153,505,4
23160,499,4
23166,475,4
23173,495,4
23180,518,4
23186,525,4
23193,521,4
23200,492,4
23206,498,4
23214,518,4
23220,507,4
23226,507,4
23232,518,4
23240,519,4
23246,521,4
23254,522,4
23260,518,4
23266,512,4
23273,512,4
23280,508,4
23286,508,4
23293,507,4
23301,508,4
23306,503,4
23313,508,4
23319,508,4
23326,512,4
23333,519,4
23341,510,4
23346,508,4
23353,518,4
23360,513,4
23366,513,4
23373,518,4
23380,511,4
23386,504,4
23393,502,4
23400,500,4
23405,501,4
23413,507,4
23420,498,4
23427,495,4
23433,495,4
23440,502,4
23446,504,4
23453,506,4
23460,514,4
23467,518,4
23473,509,4
23480,509,4
23486,512,4
23493,516,4
23500,503,4
23506,501,4
23514,501,4
23520,483,4
23526,491,4
23533,526,4
23540,540,4
23546,536,4
23554,540,4
23560,539,4
23566,527,4
23573,497,4
23580,457,4
23586,407,4
23592,373,4
23600,394,4
23606,471,4
23613,518,4
23620,535,4
23626,540,4
23633,542,4
23641,542,4
23646,542,4
23653,540,4
23660,529,4
23666,530,4
23673,531,4
23681,526,4
23686,524,4
23693,522,4
23700,522,4
23706,517,4
23713,517,4
23720,513,4
23726,513,4
23733,509,4
23740,508,4
23746,507,4
23753,507,4
23760,503,4
23767,500,4
23773,500,4
23780,489,4
23786,493,4
23793,501,4
23800,498,4
23806,494,4
23813,489,4
23820,485,4
23826,480,4
23833,473,4
23839,462,4
23846,467,4
23854,475,4
23860,479,4
23866,489,4
23873,494,4
23880,495,4
23886,496,4
23894,511,4
23900,515,4
23906,520,4
23913,525,4
23920,516,4
23925,529,4
23933,555,4
23941,557,4
23946,550,4
23953,548,4
23960,541,4
23966,539,4
23973,538,4
23981,536,4
23986,536,4
23993,533,4
24000,527,4
24006,518,4
24012,523,4
24020,532,4
24026,530,4
24033,529,4
24040,519,4
24046,516,4
24053,522,4
24060,516,4
24067,506,4
24073,507,4
24080,506,4
24086,508,4
24093,516,4
24099,511,4
24107,521,4
24113,522,4
24120,511,4
24126,504,4
24133,510,4
24140,502,4
24146,495,4
24154,492,4
24160,496,4
24166,492,4
24173,497,4
24180,502,4
24185,515,4
24194,522,4
24200,510,4
24206,506,4
24213,507,4
24220,505,4
24226,503,4
24233,503,4
24240,492,4
24246,497,4
24253,490,4
24260,496,4
24266,513,4
24273,520,4
24281,508,4
24286,508,4
24293,506,4
24300,506,4
24306,508,4
24313,506,4
24321,493,4
24326,483,4
24333,494,4
24340,513,4
24346,518,4
24353,519,4
24359,515,4
24367,508,4
24373,504,4
24380,498,4
24386,499,4
24393,503,4
24400,491,4
24407,496,4
24413,513,4
24420,516,4
24426,506,4
24433,511,4
24440,510,4
24445,508,4
24453,500,4
24459,496,4
24466,496,4
24473,499,4
24480,496,4
24486,499,4
24494,503,4
24500,499,4
24506,499,4
24513,520,4
24520,513,4
24526,510,4
24534,514,4
24540,511,4
24545,513,4
24553,525,4
24560,499,4
24566,495,4
24573,492,4
24580,488,4
24586,499,4
24593,498,4
24600,490,4
24606,499,4
24613,517,4
24620,510,4
24626,511,4
24632,507,4
24640,511,4
24646,518,4
24653,517,4
24660,507,4
24666,505,4
24673,505,4
24680,509,4
24686,518,4
24693,522,4
24700,511,4
24706,509,4
24713,509,4
24719,506,4
24726,515,4
24733,520,4
24740,502,4
24747,475,4
24753,443,4
24760,388,4
24766,371,4
24773,407,4
24780,470,4
24786,514,4
24794,522,4
24800,530,4
24805,542,4
24813,553,4
24820,543,4
24826,546,4
24834,541,4
24840,534,4
24846,530,4
24853,536,4
24860,534,4
24866,528,4
24873,523,4
24880,514,4
24886,516,4
24892,522,4
24900,516,4
24906,515,4
24913,518,4
24921,511,4
24926,512,4
24933,515,4
24940,508,4
24946,502,4
24953,498,4
24961,502,4
24966,514,4
24973,505,4
24979,485,4
24986,487,4
24993,497,4
25000,488,4
25007,486,4
25013,484,4
25020,484,4
25026,479,4
25033,477,4
25040,479,4
25047,487,4
25053,487,4
25060,494,4
25066,514,4
25073,522,4
25080,516,4
25086,525,4
25093,533,4
25100,545,4
25106,550,4
25113,549,4
25120,546,4
25126,553,4
25134,539,4
25140,530,4
25146,533,4
25152,539,4
25160,529,4
25166,527,4
25174,531,4
25180,517,4
25186,524,4
25193,531,4
25200,538,4
25206,537,4
25213,527,4
25221,520,4
25226,510,4
25233,508,4
25239,510,4
25246,509,4
25253,508,4
25261,518,4
25266,509,4
25273,505,4
25280,513,4
25286,524,4
25293,510,4
25300,506,4
25306,506,4
25313,518,4
25320,520,4
25326,509,4
25333,510,4
25339,509,4
25347,511,4
25353,508,4
25360,513,4
25366,509,4
25373,513,4
25380,501,4
25387,516,4
25393,523,4
25400,514,4
25406,511,4
25413,513,4
25420,499,4
25426,501,4
25434,508,4
25439,504,4
25446,509,4
25452,514,4
25460,504,4
25466,510,4
25474,514,4
25480,516,4
25486,514,4
25493,507,4
25500,500,4
25506,502,4
25513,510,4
25520,507,4
25526,499,4
25533,501,4
25539,501,4
25546,502,4
25553,503,4
25561,515,4
25566,510,4
25573,504,4
25580,503,4
25586,506,4
25593,509,4
25601,510,4
25606,509,4
25613,518,4
25620,501,4
25625,497,4
25633,514,4
25640,505,4
25646,503,4
25653,502,4
25660,505,4
25666,506,4
25673,507,4
25680,506,4
25687,505,4
25693,501,4
25700,503,4
25706,507,4
25712,507,4
25720,498,4
25726,497,4
25733,506,4
25740,503,4
25746,494,4
25753,496,4
25760,498,4
25766,505,4
25774,502,4
25780,494,4
25786,494,4
25793,504,4
25799,510,4
25806,509,4
25814,513,4
25820,511,4
25826,508,4
25833,520,4
25840,519,4
25846,516,4
25853,519,4
25860,510,4
25866,509,4
25873,503,4
25880,502,4
25885,501,4
25893,510,4
25901,507,4
25906,496,4
25913,479,4
25920,440,4
25926,392,4
25933,359,4
25940,407,4
25946,466,4
25953,530,4
25960,531,4
25966,528,4
25972,537,4
25980,542,4
25987,532,4
25993,529,4
26000,528,4
26006,536,4
26013,530,4
26020,525,4
26027,531,4
26033,531,4
26040,535,4
26046,529,4
26053,522,4
26059,512,4
26066,516,4
26074,513,4
26080,516,4
26086,513,4
26093,511,4
26100,510,4
26106,507,4
26114,504,4
26120,504,4
26126,506,4
26133,495,4
26140,495,4
26145,507,4
26153,498,4
26160,491,4
26166,493,4
26173,486,4
26180,475,4
26186,471,4
26193,473,4
26201,472,4
26206,482,4
26213,492,4
26220,495,4
26226,492,4
26232,506,4
26241,520,4
26246,527,4
26253,532,4
26260,541,4
26266,531,4
26273,534,4
26280,542,4
26287,547,4
26293,550,4
26300,550,4
26306,555,4
26313,535,4
26319,523,4
26327,525,4
26333,522,4
26340,522,4
26346,529,4
26353,535,4
26360,528,4
26366,522,4
26373,531,4
26380,521,4
26386,528,4
26393,521,4
26400,535,4
26406,520,4
26414,525,4
26420,518,4
26426,502,4
26432,500,4
26440,508,4
26446,504,4
26454,510,4
26460,515,4
26466,515,4
26473,511,4
26480,515,4
26486,510,4
26493,505,4
26501,507,4
26506,507,4
26513,508,4
26520,513,4
26526,522,4
26532,497,4
26541,501,4
26546,520,4
26553,569,4
26560,541,4
26566,484,4
26573,498,4
26580,469,4
26586,467,4
26593,487,4
26600,489,4
26605,494,4
26613,494,4
26620,494,4
26627,508,4
26633,499,4
26640,486,4
26646,493,4
26653,507,4
26660,506,4
26667,513,4
26673,520,4
26680,502,4
26686,493,4
26693,489,4
26700,493,4
26706,504,4
26714,509,4
26720,506,4
26726,507,4
26733,505,4
26740,508,4
26746,521,4
26754,527,4
26760,520,4
26766,523,4
26773,537,4
26779,536,4
26786,512,4
26793,508,4
26800,501,4
26806,503,4
26813,516,4
26820,518,4
26826,512,4
26833,511,4
26841,513,4
26846,507,4
26853,497,4
26860,470,4
26866,441,4
26873,371,4
26880,379,4
26886,428,4
26892,491,4
26900,531,4
26906,534,4
26913,530,4
26920,536,4
26926,544,4
26933,540,4
26940,547,4
26946,537,4
26953,526,4
26960,537,4
26967,527,4
26973,526,4
26979,517,4
26986,525,4
26993,529,4
27000,523,4
27006,517,4
27013,508,4
27020,519,4
27026,516,4
27033,521,4
27040,505,4
27046,497,4
27054,505,4
27060,509,4
27065,518,4
27073,520,4
27080,503,4
27086,500,4
27094,488,4
27100,481,4
27106,488,4
27113,494,4
27120,474,4
27126,474,4
27133,491,4
27140,492,4
27146,495,4
27152,506,4
27160,505,4
27166,509,4
27173,512,4
27181,532,4
27186,539,4
27193,531,4
27200,537,4
27206,548,4
27213,531,4
27220,534,4
27226,531,4
27233,536,4
27239,529,4
27246,523,4
27253,531,4
27260,529,4
27267,535,4
27273,533,4
27280,527,4
27286,524,4
27293,526,4
27300,524,4
27307,523,4
27313,522,4
27320,525,4
27326,520,4
27333,522,4
27340,517,4
27346,509,4
27354,512,4
27360,507,4
27366,512,4
27373,508,4
27380,494,4
27386,498,4
27394,505,4
27400,502,4
27406,500,4
27413,500,4
27420,490,4
27425,507,4
27433,513,4
27440,507,4
27446,506,4
27453,497,4
27460,501,4
27466,495,4
27473,500,4
27481,506,4
27486,508,4
27493,513,4
27500,508,4
27506,505,4
27512,506,4
27521,502,4
27526,500,4
27533,499,4
27540,499,4
27546,498,4
27553,497,4
27560,505,4
27567,512,4
27573,514,4
27580,504,4
27586,508,4
27593,495,4
27600,500,4
27607,509,4
27612,521,4
27620,506,4
27626,488,5
27633,492,5
27640,503,5
27646,521,5
27653,518,5
27660,534,5
27666,483,5
27673,501,5
27680,513,5
27686,508,5
27694,511,5
27700,530,5
27706,528,5
27712,469,5
27720,540,5
27726,539,5
27734,510,5
27740,487,5
27746,446,5
27753,397,5
27760,333,5
27766,352,5
27773,396,5
27781,418,5
27786,529,5
27793,636,5
27799,547,5
27806,538,5
27813,515,5
27821,524,5
27826,549,5
27833,538,5
27840,510,5
27846,540,5
27853,581,5
27860,575,5
27866,524,5
27873,545,5
27880,405,5
27886,520,5
27893,575,5
27899,608,5
27907,625,5
27913,581,5
27920,546,5
27926,512,5
27933,492,6
27940,537,6
27947,517,6
27953,524,6
27960,549,6
27966,542,6
27973,541,6
27980,531,6
27986,456,6
27994,530,6
27999,574,6
28006,537,6
28013,509,6
28020,450,6
28026,487,6
28034,527,6
28040,508,6
28046,490,6
28053,544,6
28060,558,6
28066,539,6
28073,500,6
28080,560,6
28085,548,6
28093,560,6
28100,562,6
28106,564,6
28113,557,6
28121,534,6
28126,496,6
28133,569,6
28140,574,6
28146,536,6
28153,552,7
28161,554,7
28166,563,7
28173,518,7
28180,505,7
28185,515,7
28193,531,7
28200,544,7
28206,560,7
28213,523,7
28220,540,7
28226,532,7
28233,524,7
28240,507,7
28247,510,7
28253,481,7
28260,474,7
28266,540,7
28272,573,7
28280,513,7
28286,505,7
28293,490,7
28300,520,7
28306,509,7
28313,441,7
28320,464,7
28326,522,7
28334,560,7
28340,557,7
28346,545,7
28353,497,7
28360,495,7
28366,504,7
28372,453,8
28380,453,8
28386,485,8
28393,538,8
28400,569,8
28406,553,8
28413,508,8
28420,495,8
28426,528,8
28433,526,8
28440,492,8
28446,485,8
28453,487,8
28461,496,8
28466,491,8
28472,465,8
28480,487,8
28486,536,8
28493,513,8
28500,497,8
28506,510,8
28513,521,8
28520,484,8
28526,499,8
28533,517,8
28540,497,8
28547,484,8
28553,487,8
28560,503,8
28566,507,8
28572,514,8
28580,516,8
28587,542,8
28593,532,8
28600,563,8
28606,520,8
28613,492,8
28620,485,8
28626,515,8
28634,526,8
28640,480,8
28646,510,8
28653,506,8
28659,514,8
28666,487,8
28674,399,8
28680,353,8
28686,391,8
28693,464,8
28700,513,9
28706,518,9
28713,519,9
28720,523,9
28726,547,9
28733,525,9
28740,535,9
28746,531,9
28753,526,9
28761,523,9
28766,507,9
28773,519,9
28780,512,9
28786,538,9
28793,518,9
28801,521,9
28806,524,9
28813,539,9
28820,547,9
28826,511,9
28833,511,9
28840,476,9
28847,474,9
28853,511,9
28860,536,9
28866,523,9
28873,502,9
28880,503,9
28887,507,9
28893,473,9
28900,478,9
28906,494,9
28913,469,9
28920,464,9
28926,440,9
28932,471,9
28940,488,9
28946,482,9
28953,476,9
28960,477,9
28966,484,9
28974,510,9
28980,479,9
28986,499,9
28993,517,9
29000,516,9
29006,543,9
29014,548,9
29020,577,9
29026,548,9
29032,512,9
29040,516,9
29046,535,9
29053,535,9
29061,512,9
29066,498,9
29073,494,9
29080,512,9
29086,560,9
29093,570,9
29101,544,9
29106,552,9
29113,521,9
29119,503,9
29126,487,9
29133,480,9
29140,494,9
29146,526,9
29153,499,9
29160,475,9
29166,499,9
29173,486,9
29180,497,9
29187,524,9
29193,556,9
29200,489,9
29206,481,9
29213,488,9
29219,518,9
29227,531,9
29233,464,9
29240,480,9
29246,502,9
29253,511,9
29260,495,9
29266,518,9
29274,507,9
29280,502,9
29286,547,9
29293,511,9
29300,504,9
29305,474,9
29314,511,9
29320,493,9
29326,487,9
29333,483,9
29340,482,9
29346,517,9
29353,531,9
29360,513,9
29366,542,9
29373,505,9
29380,478,9
29386,480,9
29392,473,9
29401,513,9
29406,523,9
29413,501,9
29420,479,9
29426,518,9
29433,503,9
29441,496,9
29446,503,9
29453,484,9
29460,496,9
29466,522,9
29473,514,9
29479,492,9
29487,511,9
29493,521,9
29500,516,9
29506,496,9
29513,509,9
29520,516,9
29527,513,9
29533,489,9
29540,509,9
29546,517,9
29553,504,9
29560,485,9
29566,510,9
29573,524,9
29579,510,9
29586,487,9
29593,512,9
29600,491,9
29606,498,9
29614,540,9
29620,524,9
29626,505,9
29633,515,9
29640,504,9
29646,504,9
29654,521,9
29660,538,9
29666,506,9
29673,530,9
29679,569,9
29686,468,10
29693,493,10
29700,529,10
29706,471,10
29713,453,10
29720,457,10
29726,393,10
29733,374,10
29741,425,10
29746,473,10
29753,545,10
29760,540,10
29765,527,10
29773,529,10
29780,506,10
29786,554,10
29793,507,10
29800,522,10
29806,540,10
29813,503,10
29820,520,10
29827,524,10
29833,523,10
29840,533,10
29846,529,10
29852,522,10
29860,475,10
29867,507,10
29873,489,10
29880,493,10
29886,521,10
29893,505,10
29900,484,10
29906,491,10
29914,503,10
29920,520,10
29926,499,10
29933,481,10
29940,514,10
29946,471,10
29953,471,10
29960,522,10
29966,442,10
29973,439,10
29980,436,10
29986,483,10
29993,498,10
30000,498,10
30006,480,10
30013,467,10
30020,511,10
30026,549,10
30033,511,10
30040,496,10
30046,483,10
30052,519,10
30060,550,10
30066,543,10
30073,527,10
30081,529,10
30086,551,10
30093,542,10
30100,514,10
30106,552,10
30113,504,10
30120,519,10
30126,522,10
30133,509,10
30139,493,10
30146,495,10
30153,525,10
30160,519,10
30167,508,10
30173,501,10
30180,534,10
30186,532,10
30193,488,10
30200,498,10
30206,510,10
30213,494,10
30220,502,10
30226,516,10
30233,508,10
30240,481,10
30246,475,10
30254,467,10
30260,477,10
30266,511,10
30273,544,10
30280,519,10
30286,511,10
30294,501,10
30300,488,10
30306,488,10
30313,492,10
30320,510,10
30326,507,10
30333,503,10
30341,502,10
30346,505,10
30353,486,10
30360,484,10
30366,481,10
30373,453,10
30381,504,10
30386,516,10
30393,522,10
30400,522,10
30406,508,10
30412,475,10
30420,475,10
30426,501,10
30433,508,10
30440,487,10
30446,479,10
30453,509,10
30460,514,10
30467,506,10
30473,500,10
30480,358,10
30486,350,10
30493,476,10
30499,593,10
30507,553,10
30513,552,10
30520,555,10
30526,525,10
30533,503,10
30540,493,10
30546,495,10
30554,500,10
30560,520,10
30566,519,10
30573,513,10
30580,514,10
30586,521,10
30594,529,10
30599,537,10
30606,514,10
30613,539,10
30620,498,10
30626,483,10
30633,484,10
30640,478,10
30646,496,10
30653,483,10
30660,501,10
30666,543,10
30673,516,10
30681,526,10
30686,514,10
30693,516,10
30700,443,10
30706,446,10
30712,477,10
30721,507,10
30726,530,10
30733,613,10
30740,561,10
30746,543,10
30753,532,10
30760,525,10
30767,448,10
30773,421,10
30780,391,10
30786,388,10
30793,445,10
30799,470,10
30807,494,10
30813,509,10
30820,514,10
30826,535,10
30833,548,10
30840,542,10
30846,548,10
30853,548,10
30860,529,10
30866,457,10
30873,405,10
30880,405,10
30886,467,10
30894,504,10
30899,502,10
30906,523,10
30913,544,10
30920,540,10
30926,528,10
30934,523,10
30940,571,10
30946,598,10
30953,604,10
30960,538,10
30966,458,10
30973,478,10
30981,523,10
30985,537,10
30993,539,10
31000,563,10
31006,546,10
31013,508,10
31021,471,10
31026,475,10
31033,487,10
31040,554,10
31046,565,10
31053,514,10
31060,516,10
31066,520,10
31073,524,10
31080,548,10
31085,673,10
31093,610,10
31100,320,10
31107,343,10
31113,392,10
31120,430,10
31126,496,10
31133,520,10
31140,507,10
31147,465,10
31153,517,10
31160,508,10
31166,567,10
31172,572,10
31180,467,10
31186,514,10
31194,534,10
31200,512,10
31206,536,10
31213,560,10
31220,475,9
31226,503,9
31234,497,9
31240,509,9
31246,563,9
31253,580,9
31260,545,9
31266,474,9
31272,524,9
31280,523,9
31286,504,9
31293,500,9
31300,574,9
31306,565,9
31313,488,9
31321,518,9
31326,501,9
31333,515,9
31340,505,9
31346,505,9
31353,486,9
31360,497,9
31366,514,9
31373,624,9
31380,551,9
31386,472,9
31393,444,9
31400,530,9
31406,513,9
31413,495,9
31420,522,9
31426,525,9
31433,477,9
31440,510,9
31446,551,9
31453,527,9
31460,507,9
31466,518,9
31473,571,9
31480,476,9
31486,431,9
31493,500,9
31500,472,9
31506,489,9
31513,505,9
31520,533,9
31526,581,9
31534,559,9
31540,483,9
31545,485,9
31553,522,9
31560,516,9
31566,531,9
31574,525,9
31580,556,9
31586,456,9
31593,506,9
31600,455,9
31606,457,9
31613,489,9
31620,494,9
31626,531,9
31632,555,9
31640,575,9
31646,535,9
31653,503,9
31661,477,9
31666,506,9
31673,534,9
31680,493,9
31686,466,9
31693,530,9
31700,575,9
31706,472,9
31713,448,9
31719,490,9
31726,519,9
31733,554,9
31740,504,9
31747,523,9
31753,523,9
31760,504,9
31766,503,9
31773,508,9
31780,518,9
31787,522,9
31793,469,9
31800,504,9
31806,514,9
31813,526,9
31819,552,9
31826,538,9
31834,520,9
31840,524,9
31846,439,9
31853,490,9
31860,526,9
31866,513,9
31874,488,9
31880,500,9
31886,560,9
31893,474,9
31900,512,9
31906,512,9
31913,535,9
31920,509,9
31926,468,9
31933,506,9
31940,486,9
31946,496,9
31953,573,9
31961,586,9
31966,514,9
31973,512,9
31980,483,9
31986,457,9
31992,433,9
32001,436,9
32006,445,9
32013,395,9
32020,488,9
32026,519,9
32033,490,9
32040,547,9
32047,586,9
32053,518,9
32060,525,9
32066,516,9
32073,517,9
32080,577,9
32087,524,9
32092,543,9
32100,539,9
32106,565,9
32113,539,9
32120,460,9
32126,499,9
32133,521,9
32140,465,9
32146,509,9
32153,525,9
32160,510,9
32166,589,9
32174,631,9
32179,503,9
32186,434,9
32192,434,9
32200,468,9
32206,475,9
32214,492,9
32220,558,9
32226,506,9
32233,445,9
32240,451,9
32246,478,9
32253,490,9
32261,464,9
32266,463,9
32273,462,9
32279,506,9
32286,513,9
32293,490,9
32301,499,9
32306,518,9
32313,515,9
32320,474,9
32326,516,9
32333,560,9
32340,489,9
32346,520,9
32353,544,9
32360,561,9
32366,557,9
32373,525,9
32379,532,9
32387,568,9
32393,568,9
32400,491,9
32406,497,9
32413,528,9
32420,550,9
32427,533,9
32433,532,9
32440,491,9
32446,446,9
32453,482,9
32460,534,9
32465,521,9
32474,503,9
32480,525,9
32486,525,9
32493,502,9
32500,539,9
32506,557,9
32514,495,9
32520,475,9
32526,495,9
32533,490,9
32540,506,9
32546,516,9
32552,512,9
32560,514,9
32566,518,9
32573,541,9
32580,549,9
32586,505,9
32593,500,9
32601,501,9
32606,511,9
32613,490,9
32620,495,9
32626,507,9
32633,517,9
32641,505,9
32646,520,9
32652,505,9
32660,510,9
32666,512,9
32673,512,9
32680,510,9
32686,505,9
32693,518,9
32700,534,9
32706,512,9
32713,504,9
32720,508,9
32727,510,9
32733,510,9
32739,507,9
32746,509,9
32753,513,9
32760,512,9
32766,511,9
32773,505,9
32780,499,9
32786,495,9
32793,501,9
32800,493,9
32806,492,9
32814,495,9
32820,509,9
32826,517,9
32833,512,9
32839,509,9
32846,508,9
32854,509,9
32860,507,9
32866,520,9
32873,500,9
32880,503,9
32886,512,9
32893,505,9
32900,510,9
32906,506,9
32913,503,9
32920,509,9
32925,507,9
32933,508,9
32941,515,9
32946,514,9
32953,492,9
32960,503,9
32966,515,9
32973,499,9
32980,480,9
32986,480,9
32993,486,9
33000,499,9
33006,513,9
33012,508,9
33020,514,9
33027,537,9
33033,523,9
33040,488,9
33046,499,9
33053,495,9
33060,497,9
33067,499,9
33073,499,9
33080,492,9
33086,504,9
33093,560,9
33099,540,9
33106,465,9
33114,440,9
33120,403,9
33126,383,9
33133,359,9
33140,421,9
33146,483,9
33154,531,9
33160,526,9
33166,529,9
33173,514,9
33180,560,9
33186,588,9
33193,572,9
33200,563,9
33206,536,9
33213,536,9
33220,559,9
33226,514,9
33233,501,9
33241,515,9
33246,517,9
33253,521,9
33260,513,9
33266,515,9
33273,502,9
33281,534,9
33285,535,9
33293,510,9
33300,508,9
33306,508,9
33313,503,9
33320,501,9
33327,501,9
33333,517,9
33340,517,9
33346,500,9
33353,484,9
33360,482,9
33367,473,9
33372,472,9
33380,476,9
33386,471,9
33393,472,9
33400,465,9
33406,472,9
33413,478,9
33420,477,9
33426,493,9
33433,498,9
33440,513,9
33446,523,9
33454,529,9
33459,534,9
33466,541,9
33472,541,9
33480,541,9
33486,544,9
33494,543,9
33500,540,9
33506,530,9
33513,529,9
33520,544,9
33526,550,9
33533,534,9
33541,536,9
33546,537,9
33553,538,9
33559,528,9
33566,527,9
33573,516,9
33581,518,9
33586,515,9
33593,504,9
33600,506,9
33606,515,9
33613,499,9
33620,503,9
33626,518,9
33633,518,9
33640,522,9
33646,507,9
33653,516,9
33660,548,9
33667,560,9
33673,553,9
33680,539,9
33686,536,9
33693,517,8
33700,495,8
33707,499,8
33713,521,8
33720,531,8
33726,534,8
33733,533,8
33740,527,8
33746,520,8
33754,527,8
33760,546,8
33766,528,8
33773,519,8
33780,507,8
33786,505,8
33794,508,8
33800,513,8
33806,514,8
33813,514,8
33820,505,8
33826,509,8
33833,497,8
33840,519,8
33845,545,8
33853,531,8
33860,515,8
33866,514,8
33873,513,8
33881,537,8
33886,527,8
33893,500,8
33900,496,8
33906,498,8
33913,502,8
33921,505,8
33926,508,8
33932,507,8
33940,511,8
33946,512,8
33953,502,8
33960,500,8
33966,511,8
33973,517,8
33980,518,8
33986,517,8
33993,514,8
34000,511,8
34007,512,8
34013,527,8
34020,506,8
34026,497,8
34032,486,8
34040,490,8
34046,477,8
34053,480,8
34060,518,8
34066,523,8
34073,513,8
34080,513,8
34086,518,8
34094,518,8
34100,523,8
34106,517,8
34113,514,8
34119,520,8
34126,506,8
34134,498,8
34140,503,8
34146,508,8
34153,505,8
34160,490,8
34166,503,8
34173,531,8
34180,528,8
34186,512,8
34193,484,8
34200,437,8
34206,393,8
34213,360,8
34220,404,8
34226,461,8
34233,516,8
34240,525,8
34246,531,8
34253,534,8
34260,558,8
34266,557,8
34273,538,8
34280,538,8
34286,533,8
34293,538,8
34300,537,8
34306,534,8
34313,528,8
34320,528,8
34326,541,8
34333,527,8
34340,490,8
34347,507,8
34353,519,8
34360,519,8
34366,520,8
34373,510,8
34380,509,8
34386,507,8
34393,505,8
34400,496,8
34406,494,8
34413,491,8
34420,476,8
34426,480,8
34434,494,8
34440,499,8
34446,485,8
34453,475,8
34460,478,8
34466,475,8
34473,473,8
34480,480,8
34486,480,8
34492,461,8
34500,471,8
34506,484,8
34513,496,8
34521,501,8
34526,506,8
34533,527,8
34540,532,8
34546,544,8
34553,557,8
34561,536,8
34566,522,8
34573,516,8
34579,522,8
34586,525,8
34593,524,8
34600,526,8
34607,520,8
34613,514,8
34620,516,8
34626,532,8
34633,531,8
34640,539,8
34647,532,8
34653,533,8
34660,527,8
34666,524,8
34673,520,8
34680,525,8
34686,534,8
34693,519,8
34700,513,8
34706,505,8
34713,504,8
34720,508,8
34726,517,8
34734,521,8
34740,524,8
34746,526,8
34753,523,8
34760,527,8
34765,527,8
34774,522,8
34780,520,8
34786,515,8
34793,510,8
34800,514,8
34806,512,8
34813,516,8
34821,515,8
34826,514,8
34833,519,8
34840,519,8
34846,519,8
34852,519,8
34861,513,8
34866,511,8
34873,512,8
34880,512,8
34886,507,8
34893,511,8
34900,521,8
34906,516,8
34913,507,8
34920,511,8
34926,514,8
34933,512,8
34939,514,8
34947,506,8
34953,500,8
34960,504,8
34966,510,8
34973,507,8
34980,507,8
34987,516,8
34993,515,8
35000,512,8
35006,509,8
35013,508,8
35020,517,8
35026,515,8
35034,498,8
35039,495,8
35046,495,8
35053,509,8
35060,505,8
35066,499,8
35074,512,8
35080,509,8
35086,509,8
35093,519,8
35100,522,8
35106,514,8
35113,506,8
35120,503,8
35125,508,8
35133,515,8
35140,530,8
35146,530,8
35153,525,8
35161,529,8
35166,517,8
35173,513,8
35180,518,8
35186,523,8
35193,516,8
35201,495,8
35206,472,8
35213,431,8
35220,375,8
35226,386,8
35233,442,8
35240,518,8
35246,536,8
35253,537,8
35260,537,8
35266,535,8
35273,533,8
35280,539,8
35287,543,8
35293,527,8
35300,522,8
35306,521,8
35312,512,8
35320,518,8
35326,525,8
35333,523,8
35340,521,8
35346,512,8
35353,500,8
35360,511,8
35366,504,8
35374,499,8
35380,504,8
35386,506,8
35393,493,8
35399,496,8
35406,505,8
35414,502,8
35420,485,8
35426,485,8
35433,495,8
35440,482,8
35446,473,8
35453,472,8
35460,475,8
35466,470,8
35473,462,8
35480,474,8
35486,481,8
35493,474,8
35501,473,8
35506,483,8
35513,496,8
35520,510,8
35526,520,8
35533,506,8
35540,516,8
35546,525,8
35553,537,8
35560,544,8
35566,545,8
35573,539,8
35580,539,8
35587,539,8
35593,541,8
35600,543,8
35606,541,8
35613,542,8
35620,539,8
35627,535,8
35633,526,8
35640,528,8
35646,529,8
35653,530,8
35660,539,8
35666,523,8
35673,511,8
35680,512,8
35686,511,8
35693,512,8
35700,510,8
35706,506,8
35714,498,8
35720,510,8
35726,511,8
35733,515,8
35740,520,8
35746,527,8
35753,517,8
35760,507,8
35766,505,8
35772,504,8
35780,509,8
35786,504,8
35793,509,8
35801,503,8
35806,505,8
35813,492,8
35820,510,8
35826,523,8
35833,524,8
35841,516,8
35846,510,8
35853,497,8
35860,501,8
35866,499,8
35872,497,8
35880,500,8
35887,504,8
35893,500,8
35900,510,8
35906,511,8
35913,509,8
35920,497,8
35927,483,8
35933,483,8
35940,507,8
35946,510,8
35953,496,8
35959,495,8
35966,490,8
35973,486,8
35980,494,8
35986,490,8
35993,487,8
36000,506,8
36006,514,8
36014,517,8
36020,507,8
36026,506,8
36033,508,8
36040,519,8
36046,516,8
36054,509,8
36060,513,8
36066,513,8
36073,504,8
36080,504,8
36086,504,8
36093,517,8
36101,500,8
36106,489,8
36113,460,8
36120,414,8
36126,368,8
36133,367,8
36141,444,8
36145,488,8
36153,524,8
36160,536,8
36166,534,8
36173,534,8
36180,546,8
36186,551,8
36193,543,8
36200,522,8
36206,536,8
36213,533,8
36220,532,8
36227,525,8
36233,540,8
36240,520,8
36245,502,8
36253,503,8
36260,505,8
36267,513,8
36273,520,8
36280,521,8
36286,503,8
36293,506,8
36300,505,8
36306,507,8
36314,505,8
36320,504,8
36326,498,8
36332,497,8
36340,494,8
36346,481,8
36354,480,8
36360,479,8
36366,477,8
36373,490,8
36380,485,8
36386,490,8
36393,478,8
36400,468,8
36406,470,8
36413,486,8
36420,495,8
36426,503,8
36432,510,8
36441,527,8
36446,532,8
36453,528,8
36460,529,8
36466,533,8
36473,547,8
36481,553,8
36486,549,8
36493,549,8
36500,542,8
36506,533,8
36513,527,8
36519,534,8
36527,534,8
36533,529,8
36540,523,8
36546,522,8
36553,548,8
36560,525,8
36567,513,8
36573,519,8
36580,523,8
36586,524,8
36593,522,8
36600,519,8
36606,515,8
36613,513,8
36619,520,8
36626,509,8
36633,489,8
36640,500,8
36646,525,8
36654,523,8
36660,512,8
36666,505,8
36673,504,8
36680,505,8
36686,501,8
36694,495,8
36700,500,8
36706,498,8
36713,494,8
36719,495,8
36726,509,8
36733,513,8
36740,514,8
36746,514,8
36753,510,8
36760,513,8
36766,510,8
36773,503,8
36781,507,8
36786,515,8
36793,518,8
36800,502,8
36805,496,8
36813,504,8
36820,508,8
36826,510,8
36833,510,8
36840,517,8
36846,513,8
36853,505,8
36860,511,8
36867,509,8
36873,500,8
36880,496,8
36886,499,8
36892,504,8
36900,512,8
36907,514,8
36913,524,8
36920,519,8
36926,514,8
36933,509,8
36940,511,8
36946,517,8
36954,512,8
36960,511,8
36966,515,8
36973,519,8
36979,514,8
36986,520,8
36994,520,8
37000,527,8
37006,519,8
37013,498,8
37020,470,8
37026,436,8
37033,358,8
37040,329,8
37046,339,8
37053,308,8
37060,427,8
37066,546,8
37073,625,8
37081,629,8
37086,626,8
37093,601,8
37100,584,8
37106,577,8
37113,556,8
37121,536,8
37126,534,8
37133,540,8
37140,534,8
37146,523,8
37153,520,8
37160,516,8
37165,512,8
37173,505,8
37180,494,8
37186,496,8
37193,504,8
37200,499,8
37207,496,8
37213,501,8
37220,507,8
37226,505,8
37233,493,8
37240,494,8
37246,487,8
37252,481,8
37260,486,8
37266,481,8
37273,473,8
37280,470,8
37286,475,8
37294,481,8
37300,476,8
37306,475,8
37313,477,8
37320,491,8
37326,494,8
37334,500,8
37340,513,8
37346,520,8
37352,520,8
37360,525,8
37366,528,8
37373,533,8
37381,548,8
37386,544,8
37393,539,8
37400,545,8
37406,541,8
37413,538,8
37421,537,8
37426,540,8
37433,529,8
37439,520,8
37446,515,8
37453,527,8
37460,534,8
37466,530,8
37473,528,8
37480,524,8
37486,516,8
37493,512,8
37500,514,8
37507,514,8
37513,510,8
37520,503,8
37526,511,8
37533,522,8
37539,524,8
37547,530,8
37553,524,8
37560,506,8
37566,506,8
37573,502,8
37580,510,8
37586,512,8
37594,493,8
37600,506,8
37606,517,8
37613,515,8
37620,520,8
37625,520,8
37634,510,8
37640,514,8
37646,518,8
37653,502,8
37660,508,8
37666,503,8
37673,492,8
37680,507,8
37686,507,8
37693,509,8
37700,515,8
37706,511,8
37712,496,8
37721,501,8
37726,497,8
37733,497,8
37740,495,8
37746,496,8
37753,506,8
37761,507,8
37766,506,8
37773,508,8
37780,518,8
37786,521,8
37793,501,8
37800,500,8
37807,509,8
37812,510,8
37820,503,8
37826,506,8
37833,508,8
37840,513,8
37847,505,8
37853,499,8
37860,511,8
37866,512,8
37873,501,8
37880,484,8
37886,450,8
37893,391,8
37899,365,8
37906,411,8
37913,482,8
37920,529,8
37926,537,8
37934,531,8
37940,535,8
37946,529,8
37953,536,7
37960,548,8
37966,530,7
37974,528,7
37980,531,8
37986,536,7
37993,517,7
38000,512,7
38006,514,7
38012,515,7
38021,512,8
38026,513,7
38033,508,7
38040,509,7
38046,521,7
38053,509,7
38061,498,7
38066,502,7
38073,504,7
38080,505,7
38086,502,7
38093,500,7
38099,498,7
38106,500,7
38113,506,7
38120,497,7
38126,482,7
38133,462,7
38140,457,7
38147,462,7
38153,479,7
38160,488,7
38166,488,7
38173,485,7
38180,486,7
38185,497,7
38193,497,7
38200,511,7
38206,520,7
38213,528,7
38220,535,7
38226,520,7
38234,530,7
38240,531,7
38246,536,7
38253,547,7
38260,548,7
38266,534,7
38274,528,7
38280,531,7
38285,532,7
38293,531,7
38300,533,7
38306,535,7
38313,527,7
38320,516,7
38326,506,7
38333,511,7
38340,517,7
38346,513,7
38353,516,7
38361,524,7
38366,522,7
38372,519,7
38380,521,7
38386,520,7
38393,513,7
38401,521,7
38406,522,7
38413,513,7
38420,504,7
38426,508,7
38433,509,7
38440,511,7
38446,514,7
38453,529,7
38460,522,7
38466,520,7
38472,520,7
38480,518,7
38487,519,7
38493,513,7
38500,515,7
38506,515,7
38513,497,7
38520,506,7
38526,522,7
38533,511,7
38540,496,7
38546,498,7
38553,512,7
38559,515,7
38566,512,7
38574,516,7
38580,523,7
38586,523,7
38593,510,7
38600,517,7
38606,520,7
38614,510,7
38620,504,7
38626,514,7
38633,512,7
38640,515,7
38646,506,7
38653,506,7
38659,517,7
38666,521,7
38673,493,7
38680,453,7
38686,417,7
38693,379,7
38701,404,7
38706,441,7
38713,499,7
38720,526,7
38726,525,7
38733,523,7
38740,541,7
38746,547,7
38753,535,7
38759,527,7
38766,529,7
38773,524,7
38780,520,7
38787,512,7
38793,510,7
38800,504,7
38806,524,7
38813,531,7
38820,528,7
38827,529,7
38833,516,7
38840,515,7
38846,510,7
38853,507,7
38860,513,7
38866,502,7
38874,503,7
38880,498,7
38886,488,7
38893,481,7
38900,499,7
38906,504,7
38914,481,7
38920,481,7
38926,477,7
38933,483,7
38940,494,7
38946,500,7
38953,492,7
38960,485,7
38966,478,7
38973,484,7
38980,497,7
38986,502,7
38993,530,7
39001,532,7
39006,532,7
39013,537,7
39020,544,7
39026,539,7
39032,544,7
39041,556,7
39046,545,7
39053,544,7
39060,543,7
39066,534,7
39073,527,7
39080,533,7
39087,534,7
39093,528,7
39100,526,7
39106,527,7
39113,529,7
39120,536,7
39127,523,7
39132,522,7
39140,522,7
39146,523,7
39153,527,7
39160,517,7
39166,508,7
39173,518,7
39180,523,7
39186,524,7
39193,513,7
39200,513,7
39206,516,7
39214,516,7
39219,516,7
39226,503,7
39232,509,7
39240,527,7
39246,515,7
39254,508,7
39260,524,7
39266,510,7
39273,510,7
39280,512,7
39286,510,7
39293,496,7
39301,488,7
39306,495,7
39313,499,7
39319,510,7
39326,506,7
39333,526,7
39341,531,7
39346,506,7
39353,507,7
39360,511,7
39366,514,7
39373,523,7
39380,523,7
39386,518,7
39393,516,7
39400,515,7
39406,523,7
39413,504,7
39419,509,7
39427,510,7
39433,494,7
39440,487,7
39446,476,7
39453,423,7
39460,380,7
39467,409,7
39473,465,7
39480,522,7
39486,537,7
39493,541,7
39500,534,7
39506,532,7
39514,537,7
39519,532,7
39526,539,7
39533,534,7
39540,537,7
39546,537,7
39554,526,7
39560,520,7
39566,518,7
39573,522,7
39580,516,7
39586,519,7
39593,524,7
39600,512,7
39605,510,7
39613,510,7
39620,515,7
39626,512,7
39633,512,7
39641,506,7
39646,504,7
39653,504,7
39660,504,7
39666,503,7
39673,505,7
39681,503,7
39686,489,7
39693,484,7
39700,502,7
39706,480,7
39713,475,7
39720,473,7
39726,479,7
39733,486,7
39740,483,7
39746,491,7
39753,502,7
39760,518,7
39767,522,7
39773,526,7
39780,529,7
39786,539,7
39792,537,7
39800,536,7
39806,544,7
39813,540,7
39820,535,7
39826,531,7
39833,528,7
39840,533,7
39846,528,7
39854,528,7
39860,522,7
39866,523,7
39873,520,7
39879,523,7
39886,519,7
39894,516,7
39900,513,7
39906,511,7
39913,524,7
39920,519,7
39926,517,7
39933,521,7
39940,522,7
39946,521,7
39953,512,7
39960,516,7
39966,515,7
39973,514,7
39981,512,7
39986,509,7
39993,509,7
40000,513,7
40006,512,7
40013,518,7
40020,518,7
40026,522,7
40033,529,7
40040,521,7
40046,509,7
40053,510,7
40060,514,7
40067,506,7
40073,502,7
40080,492,7
40086,489,7
40093,507,7
40100,518,7
40107,510,7
40113,508,7
40120,516,7
40126,516,7
40133,520,7
40140,517,7
40146,495,7
40153,488,7
40160,511,7
40166,523,7
40173,515,7
40180,519,7
40186,518,7
40194,509,7
40200,510,7
40206,505,7
40213,505,7
40220,503,7
40226,501,7
40233,480,7
40239,447,7
40246,401,7
40252,367,7
40260,417,7
40266,472,7
40273,503,7
40281,525,7
40286,528,7
40293,535,7
40300,545,7
40306,546,7
40313,539,7
40321,534,7
40326,528,7
40333,534,7
40339,530,7
40346,517,7
40353,523,7
40360,524,7
40367,520,7
40373,525,7
40380,523,7
40386,520,7
40393,511,7
40400,520,7
40407,514,7
40413,505,7
40420,499,7
40426,502,7
40433,497,7
40440,506,7
40446,508,7
40453,506,7
40460,500,7
40466,492,7
40473,488,7
40480,482,7
40486,480,7
40494,478,7
40500,467,7
40506,478,7
40513,484,7
40520,498,7
40526,496,7
40534,501,7
40540,514,7
40546,508,7
40553,506,7
40560,516,7
40566,517,7
40573,526,7
40581,526,7
40586,526,7
40593,535,7
40600,531,7
40606,535,7
40612,538,7
40621,533,7
40626,529,7
40633,527,7
40640,531,7
40646,524,7
40653,522,7
40660,517,7
40666,512,7
40673,514,7
40680,527,7
40686,528,7
40693,515,7
40699,518,7
40707,518,7
40713,515,7
40720,516,7
40726,515,7
40733,512,7
40740,512,7
40747,514,7
40753,505,7
40760,500,7
40766,504,7
40773,499,7
40780,500,7
40786,511,7
40794,520,7
40800,516,7
40806,511,7
40813,512,7
40820,501,7
40826,508,7
40834,500,7
40840,503,7
40846,499,7
40853,496,7
40860,494,7
40866,498,7
40873,511,7
40880,511,7
40885,507,7
40893,516,7
40900,511,7
40906,503,7
40913,506,7
40921,505,7
40926,503,7
40933,501,7
40940,510,7
40946,504,7
40953,495,7
40961,513,7
40966,506,7
40972,501,7
40980,510,7
40986,513,7
40993,509,7
41000,507,7
41006,502,7
41013,499,7
41020,504,7
41026,503,7
41033,500,7
41040,495,7
41047,493,7
41053,499,7
41060,504,7
41066,504,7
41072,494,7
41080,489,7
41086,494,7
41093,500,7
41100,507,7
41106,508,7
41113,504,7
41120,507,7
41126,502,7
41134,510,7
41140,522,7
41146,519,7
41153,515,7
41159,510,7
41166,510,7
41174,513,7
41180,509,7
41186,509,7
41193,507,7
41200,503,7
41206,492,7
41213,510,7
41220,526,7
41226,503,7
41233,472,7
41240,432,7
41246,393,7
41253,364,7
41260,401,7
41266,454,7
41272,506,7
41280,528,7
41286,536,7
41293,542,7
41300,544,7
41306,547,7
41313,543,7
41320,548,7
41326,541,7
41333,535,7
41340,530,7
41347,524,7
41353,525,7
41360,522,7
41366,513,7
41372,503,7
41380,511,7
41387,511,7
41393,504,7
41400,503,7
41406,507,7
41413,517,7
41420,516,7
41426,511,7
41434,502,7
41440,497,7
41446,488,7
41453,490,7
41459,486,7
41466,486,7
41474,497,7
41480,492,7
41486,468,7
41493,471,7
41500,473,7
41506,471,7
41513,471,7
41520,474,7
41526,477,7
41533,482,7
41540,488,7
41546,490,7
41553,504,7
41561,510,7
41566,518,7
41573,530,7
41580,542,7
41586,543,7
41593,549,7
41601,546,7
41606,545,7
41613,543,7
41620,544,7
41626,532,7
41633,521,7
41640,528,7
41645,526,7
41653,530,7
41660,540,7
41666,531,7
41673,527,7
41680,526,7
41687,528,7
41693,524,7
41700,518,7
41706,514,7
41713,509,7
41720,516,7
41726,521,7
41733,510,7
41740,514,7
41745,516,7
41753,518,7
41760,516,7
41766,512,7
41774,513,7
41780,510,7
41786,507,7
41793,503,7
41800,503,7
41806,496,7
41814,508,7
41820,517,7
41826,516,7
41833,513,7
41840,513,7
41846,507,7
41853,508,7
41861,507,7
41866,506,7
41873,507,7
41880,507,7
41886,506,7
41893,501,7
41901,503,7
41906,501,7
41913,503,7
41920,507,7
41926,509,7
41932,510,7
41940,516,7
41946,516,7
41953,510,7
41960,512,7
41966,509,7
41973,510,7
41980,509,7
41987,508,7
41993,508,7
42000,507,7
42006,500,7
42013,499,7
42020,506,7
42027,505,7
42032,507,7
42040,507,7
42046,503,7
42053,504,7
42060,515,7
42066,510,7
42074,491,7
42080,490,7
42086,496,7
42093,501,7
42100,496,7
42106,499,7
42114,503,7
42119,507,7
42126,508,7
42133,514,7
42140,515,7
42146,510,7
42153,506,7
42160,507,7
42166,506,7
42173,506,7
42180,508,7
42186,507,7
42193,510,7
42201,503,7
42205,499,7
42213,512,7
42220,504,7
42226,498,7
42233,501,7
42241,511,7
42246,510,7
42253,501,7
42260,489,7
42266,490,7
42273,487,7
42280,485,7
42287,495,7
42293,502,7
42300,496,7
42305,497,7
42313,509,7
42320,515,7
42327,515,7
42333,522,7
42340,519,7
42346,524,7
42353,519,7
42360,519,7
42366,517,7
42373,522,7
42380,511,7
42386,510,7
42393,517,7
42400,519,7
42405,519,7
42414,524,7
42420,520,7
42426,506,7
42433,472,7
42440,433,7
42446,382,7
42454,352,7
42460,396,7
42466,456,7
42473,511,7
42480,532,7
42486,538,7
42493,548,7
42501,556,7
42505,545,7
42513,536,7
42520,541,7
42526,532,7
42533,526,7
42541,524,7
42546,527,7
42553,528,7
42560,525,7
42566,517,7
42573,520,7
42580,525,7
42586,521,7
42593,513,7
42600,510,7
42606,504,7
42613,497,7
42620,512,7
42627,509,7
42633,509,7
42640,506,7
42646,500,7
42653,501,7
42660,501,7
42667,491,7
42673,488,7
42680,482,7
42686,478,7
42693,480,7
42700,473,7
42705,479,7
42714,477,7
42720,471,7
42726,480,7
42733,486,7
42740,487,7
42746,488,7
42754,497,7
42760,515,7
42766,516,7
42773,524,7
42780,527,7
42786,544,7
42792,549,7
42800,549,7
42806,542,7
42813,543,7
42820,550,7
42826,549,7
42833,543,7
42841,535,7
42846,536,7
42853,537,7
42860,545,7
42866,541,7
42873,539,7
42880,530,7
42886,524,7
42892,527,7
42900,531,7
42906,525,7
42913,520,7
42920,517,7
42926,513,7
42933,506,7
42940,513,7
42946,518,7
42953,523,7
42960,512,7
42967,515,7
42973,510,7
42980,518,7
42986,518,7
42992,519,7
43000,516,7
43006,511,7
43013,509,7
43020,511,7
43026,509,7
43033,514,7
43040,502,7
43046,501,7
43054,511,7
43060,515,7
43066,506,7
43073,515,7
43079,508,7
43086,510,7
43094,517,7
43100,511,7
43106,505,7
43113,513,7
43120,511,7
43126,496,7
43133,503,7
43140,512,7
43146,518,7
43153,514,7
43160,504,7
43166,499,7
43173,508,7
43181,502,7
43186,498,7
43193,499,7
43200,501,7
43206,500,7
43213,504,7
43220,505,7
43226,499,7
43233,501,7
43240,512,7
43246,515,7
43253,508,7
43260,502,7
43266,501,7
43273,490,7
43280,518,7
43286,524,7
43293,515,7
43300,511,7
43307,509,7
43313,505,7
43320,501,7
43326,508,7
43333,505,7
43340,500,7
43346,498,7
43353,505,7
43360,505,7
43366,505,7
43373,506,7
43380,505,7
43386,498,7
43394,504,7
43400,512,7
43406,509,7
43413,509,7
43420,514,7
43426,517,7
43433,518,7
43440,520,7
43446,515,7
43452,511,7
43460,518,7
43466,512,7
43473,515,7
43481,522,7
43486,520,7
43493,524,7
43500,524,7
43506,507,7
43513,511,7
43521,515,7
43526,498,7
43533,471,7
43540,428,7
43546,372,7
43552,370,7
43560,434,7
43567,499,7
43573,530,7
43580,544,7
43586,541,7
43593,544,7
43600,544,7
43607,529,7
43613,529,7
43620,525,7
43626,522,7
43633,522,7
43639,519,7
43646,518,7
43653,518,7
43660,515,7
43666,530,7
43673,528,7
43680,514,7
43686,503,7
43694,506,7
43700,502,7
43706,492,7
43713,499,7
43720,499,7
43726,496,7
43734,505,7
43740,505,7
43746,494,7
43753,488,7
43760,491,7
43766,493,7
43773,480,7
43781,478,7
43786,484,7
43793,481,7
43800,480,7
43806,478,7
43813,480,7
43821,475,7
43826,477,7
43833,483,7
43840,487,7
43846,494,7
43853,510,7
43860,515,7
43866,520,7
43873,530,7
43880,539,7
43886,538,7
43893,535,7
43900,532,7
43907,536,7
43913,539,7
43920,534,7
43925,531,7
43933,535,7
43940,539,7
43947,533,7
43953,536,7
43960,541,7
43966,534,7
43973,526,7
43980,529,7
43986,524,7
43994,526,7
44000,518,7
44006,515,7
44012,517,7
44020,519,7
44026,515,7
44034,506,7
44040,511,7
44046,512,7
44053,516,7
44060,519,7
44066,499,7
44073,505,7
44080,509,7
44086,508,7
44093,510,7
44099,507,7
44106,505,7
44113,519,7
44121,509,7
44126,504,7
44133,507,7
44140,512,7
44146,519,7
44153,521,7
44161,508,7
44166,502,7
44173,502,7
44180,498,7
44186,501,7
44193,512,7
44200,512,7
44206,510,7
44213,509,7
44220,506,7
44226,502,7
44233,509,7
44240,514,7
44247,507,7
44253,506,7
44260,512,7
44266,511,7
44273,512,7
44280,501,7
44286,493,7
44293,488,7
44300,496,7
44306,497,7
44313,509,7
44320,517,7
44326,511,7
44334,518,7
44340,528,7
44346,530,7
44353,538,7
44360,511,7
44366,505,7
44372,514,7
44380,516,7
44386,518,7
44393,518,7
44400,522,7
44406,525,7
44413,522,7
44420,521,7
44426,517,7
44433,498,7
44440,488,7
44446,460,7
44453,393,7
44460,362,7
44466,395,7
44472,469,7
44480,526,7
44486,541,7
44493,543,7
44500,545,7
44506,549,7
44513,541,7
44520,536,7
44526,528,7
44533,525,7
44540,528,7
44547,527,7
44553,522,7
44559,522,7
44566,522,7
44573,527,7
44580,522,7
44587,522,7
44593,525,7
44600,524,7
44606,514,7
44613,507,7
44620,507,7
44626,508,7
44634,502,7
44640,502,7
44645,498,7
44653,504,7
44660,505,7
44666,500,7
44674,491,7
44680,487,7
44686,482,7
44693,483,7
44700,487,7
44706,480,7
44713,478,7
44720,483,7
44726,476,7
44733,484,7
44740,492,7
44746,490,7
44753,502,7
44761,520,7
44766,530,7
44773,525,7
44780,528,7
44786,535,7
44793,541,7
44801,536,7
44806,539,7
44813,538,7
44820,538,7
44826,528,7
44833,533,7
44840,527,7
44845,524,7
44853,529,7
44860,528,7
44866,525,7
44873,536,7
44880,525,7
44887,524,7
44893,526,7
44900,528,7
44906,521,7
44913,513,7
44920,512,7
44926,509,7
44933,510,7
44940,522,7
44945,513,7
44953,505,7
44960,506,7
44966,508,7
44974,511,7
44980,512,7
44986,510,7
44993,515,7
45000,514,7
45006,517,7
45014,518,7
45020,513,7
45026,514,7
45032,519,7
45040,525,7
45046,517,7
45053,517,7
45061,515,7
45066,505,7
45073,504,7
45080,513,7
45086,514,7
45093,515,7
45101,505,7
45106,499,7
45113,509,7
45120,520,7
45126,504,7
45132,484,7
45140,489,7
45146,496,7
45153,506,7
45160,509,7
45166,518,7
45173,520,7
45180,511,7
45187,510,7
45193,518,7
45200,525,7
45206,523,7
45213,527,7
45219,515,7
45227,515,7
45232,519,7
45240,514,7
45246,523,7
45253,517,7
45260,522,7
45266,518,7
45274,508,7
45280,485,7
45286,449,7
45293,404,7
45300,370,7
45306,395,7
45314,471,7
45320,513,7
45326,527,7
45332,533,7
45340,545,7
45346,543,7
45353,540,7
45360,536,7
45366,534,7
45373,538,7
45380,536,7
45386,534,7
45393,542,7
45401,526,7
45406,519,7
45413,520,7
45419,527,7
45426,534,7
45433,516,7
45441,513,7
45446,511,7
45453,511,7
45460,516,7
45466,508,7
45473,511,7
45480,512,7
45487,507,7
45493,506,7
45500,497,7
45506,496,7
45513,493,7
45520,487,7
45527,485,7
45533,491,7
45540,490,7
45546,476,7
45553,475,7
45560,471,7
45566,473,7
45573,493,7
45580,492,7
45586,495,7
45593,513,7
45600,512,7
45606,518,7
45614,521,7
45620,527,7
45626,535,7
45633,542,7
45640,539,7
45646,541,7
45654,532,7
45660,526,6
45666,528,6
45673,530,6
45680,531,6
45686,519,6
45692,521,6
45701,520,6
45706,527,6
45713,523,6
45720,518,6
45726,516,6
45733,515,6
45741,511,6
45746,513,6
45753,513,6
45760,517,6
45766,516,6
45773,517,6
45780,506,6
45786,503,6
45792,512,6
45800,510,6
45806,506,6
45813,505,6
45820,506,6
45827,512,6
45833,511,6
45840,510,6
45846,506,6
45853,512,6
45860,514,6
45867,508,6
45873,511,6
45879,508,6
45886,508,6
45893,513,6
45900,516,6
45906,509,6
45914,499,6
45920,510,6
45926,514,6
45933,514,6
45940,500,6
45946,499,6
45954,512,6
45960,505,6
45966,507,6
45973,509,6
45979,509,6
45986,490,6
45993,497,6
46000,518,6
46006,491,6
46013,495,6
46020,497,6
46026,503,6
46033,514,6
46041,506,6
46046,507,6
46053,520,6
46060,517,6
46066,508,6
46073,509,6
46080,505,6
46086,504,6
46093,506,6
46100,495,6
46106,498,6
46113,496,6
46120,479,6
46126,477,6
46133,495,6
46140,497,6
46146,505,6
46153,507,6
46160,503,6
46166,505,6
46173,512,6
46179,509,6
46186,504,6
46193,512,6
46200,509,6
46206,509,6
46213,520,6
46220,524,6
46226,524,6
46233,517,6
46240,506,6
46246,511,6
46254,514,6
46260,517,6
46265,509,6
46273,489,6
46280,458,6
46286,420,6
46294,365,6
46300,365,6
46306,427,6
46313,479,6
46320,512,6
46326,523,6
46333,538,6
46340,545,6
46346,548,6
46353,545,6
46360,533,6
46365,538,6
46373,538,6
46381,531,6
46386,528,6
46393,533,6
46400,531,6
46406,521,6
46413,518,6
46420,517,6
46426,514,6
46433,520,6
46440,522,6
46446,515,6
46452,514,6
46460,512,6
46467,506,6
46473,505,6
46480,504,6
46486,499,6
46493,485,6
46500,490,6
46507,498,6
46513,501,6
46520,496,6
46526,484,6
46533,488,6
46539,484,6
46546,480,6
46554,482,6
46560,482,6
46566,471,6
46573,474,6
46580,488,6
46586,489,6
46594,501,6
46600,530,6
46606,547,6
46613,543,6
46620,547,6
46626,554,6
46633,550,6
46640,538,6
46646,535,6
46653,525,6
46660,536,6
46666,537,6
46673,536,6
46681,531,6
46686,535,6
46693,535,6
46700,534,6
46706,522,6
46713,516,6
46721,512,6
46725,513,6
46733,517,6
46740,523,6
46746,519,6
46753,515,6
46760,514,6
46767,507,6
46773,514,6
46780,515,6
46786,516,6
46793,510,6
46800,504,6
46807,505,6
46813,507,6
46820,506,6
46825,504,6
46833,507,6
46840,516,6
46846,510,6
46853,510,6
46860,510,6
46866,506,6
46873,505,6
46880,504,6
46886,503,6
46894,509,6
46900,508,6
46906,501,6
46912,504,6
46920,504,6
46926,509,6
46934,512,6
46940,506,6
46946,507,6
46953,505,6
46960,506,6
46966,506,6
46973,516,6
46981,506,6
46986,508,6
46993,508,6
47000,511,6
47006,509,6
47012,515,6
47021,509,6
47026,500,6
47033,499,6
47040,509,6
47046,521,6
47053,508,6
47060,501,6
47066,500,6
47073,508,6
47080,509,6
47086,512,6
47093,510,6
47099,506,6
47107,509,6
47113,507,6
47120,507,6
47126,506,6
47133,504,6
47140,513,6
47147,512,6
47153,511,6
47160,502,6
47166,506,6
47173,514,6
47180,513,6
47186,512,6
47194,516,6
47199,513,6
47206,510,6
47213,506,6
47220,508,6
47226,500,6
47234,499,6
47240,507,6
47246,508,6
47253,501,6
47260,495,6
47266,498,6
47273,505,6
47280,501,6
47286,503,6
47293,509,6
47299,518,6
47306,512,6
47313,508,6
47321,510,6
47326,504,6
47333,509,6
47340,510,6
47346,502,6
47353,501,6
47361,494,6
47366,492,6
47373,503,6
47380,496,6
47386,496,6
47393,498,6
47400,493,6
47406,495,6
47413,501,6
47420,497,6
47426,493,6
47433,512,6
47440,518,6
47447,517,6
47453,524,6
47460,516,6
47466,516,6
47473,525,6
47480,519,6
47486,516,6
47493,517,6
47500,515,6
47506,519,6
47513,525,6
47520,525,6
47526,512,6
47534,518,6
47540,519,6
47546,514,6
47553,485,6
47560,437,6
47566,376,6
47572,352,6
47580,400,6
47586,466,6
47593,519,6
47600,544,6
47606,541,6
47613,542,6
47620,542,6
47626,543,6
47633,546,6
47640,544,6
47646,541,6
47653,541,6
47661,532,6
47666,529,6
47672,525,6
47680,531,6
47686,523,6
47693,508,6
47700,509,6
47706,510,6
47713,519,6
47720,514,6
47726,507,6
47733,506,6
47740,501,6
47747,500,6
47753,505,6
47759,500,6
47766,502,6
47773,496,6
47780,482,6
47787,481,6
47793,488,6
47800,486,6
47806,482,6
47813,480,6
47820,473,6
47826,473,6
47834,484,6
47840,477,6
47846,468,6
47853,482,6
47859,489,6
47866,495,6
47874,504,6
47880,507,6
47886,518,6
47893,526,6
47900,531,6
47906,535,6
47913,540,6
47920,544,6
47926,543,6
47933,539,6
47940,540,6
47946,536,6
47953,541,6
47960,537,6
47966,542,6
47973,539,6
47980,531,6
47986,526,6
47993,525,6
48001,524,6
48006,525,6
48013,532,6
48020,524,6
48026,519,6
48033,518,6
48040,515,6
48047,516,6
48053,514,6
48060,515,6
48066,516,6
48073,517,6
48080,519,6
48087,529,6
48093,522,6
48100,509,6
48106,509,6
48113,519,6
48120,523,6
48126,515,6
48132,510,6
48140,511,6
48146,513,6
48153,507,6
48160,516,6
48166,513,6
48174,508,6
48180,508,6
48186,513,6
48193,516,6
48200,499,6
48206,495,6
48214,500,6
48220,501,6
48226,496,6
48232,501,6
48240,508,6
48246,513,6
48253,511,6
48261,505,6
48266,503,6
48273,500,6
48280,501,6
48286,506,6
48293,502,6
48301,505,6
48306,506,6
48313,500,6
48319,506,6
48326,512,6
48333,508,6
48340,505,6
48346,506,6
48353,500,6
48360,503,6
48366,502,6
48373,503,6
48380,501,6
48387,505,6
48393,508,6
48400,498,6
48406,498,6
48413,500,6
48420,502,6
48427,507,6
48433,503,6
48440,492,6
48446,489,6
48453,500,6
48460,502,6
48466,497,6
48474,504,6
48480,509,6
48486,506,6
48493,509,6
48500,509,6
48505,501,6
48514,502,6
48520,507,6
48526,512,6
48533,507,6
48540,511,6
48546,508,6
48553,505,6
48560,508,6
48566,504,6
48573,506,6
48580,516,6
48586,517,6
48593,512,6
48601,501,6
48605,502,6
48613,497,6
48620,498,6
48626,494,6
48633,501,6
48641,496,6
48646,496,6
48653,498,6
48660,511,6
48666,521,6
48673,520,6
48680,525,6
48687,525,6
48692,516,6
48700,511,6
48706,512,6
48713,516,6
48720,525,6
48727,523,6
48733,518,6
48740,517,6
48746,509,6
48753,510,6
48760,509,6
48766,504,6
48773,498,6
48780,471,6
48786,420,6
48792,375,6
48800,355,6
48806,412,6
48814,482,6
48820,525,6
48826,539,6
48833,535,6
48840,537,6
48846,538,6
48854,531,6
48860,533,6
48866,538,6
48873,534,6
48880,534,6
48886,531,6
48892,523,6
48901,516,6
48906,524,6
48913,528,6
48920,524,6
48926,520,6
48933,510,6
48941,513,6
48946,515,6
48953,516,6
48960,502,6
48966,502,6
48973,507,6
48979,510,6
48986,507,6
48992,494,6
49000,488,6
49006,493,6
49013,503,6
49020,487,6
49027,484,6
49033,490,6
49040,491,6
49046,485,6
49053,485,6
49060,475,6
49067,486,6
49073,484,6
49079,485,6
49086,503,6
49093,506,6
49100,521,6
49106,520,6
49114,519,6
49120,523,6
49126,529,6
49133,537,6
49140,553,6
49146,551,6
49154,542,6
49160,537,6
49166,538,6
49173,542,6
49179,539,6
49186,535,6
49193,536,6
49200,532,6
49206,527,6
49213,524,6
49220,520,6
49226,519,6
49233,525,6
49241,519,6
49246,513,6
49253,521,6
49260,514,6
49265,513,6
49273,527,6
49281,524,6
49286,528,6
49293,523,6
49300,528,6
49306,509,6
49313,511,6
49320,515,6
49326,521,6
49333,519,6
49340,505,6
49346,511,6
49352,525,6
49360,519,6
49367,517,6
49373,506,6
49380,505,6
49386,510,6
49393,510,6
49400,509,6
49406,505,6
49413,505,6
49420,512,6
49426,511,6
49433,516,6
49440,504,6
49446,506,6
49453,505,6
49460,516,6
49466,511,6
49473,500,6
49480,505,6
49486,502,6
49494,500,6
49500,502,6
49506,507,6
49513,503,6
49520,516,6
49526,523,6
49533,509,6
49540,506,6
49546,510,6
49552,510,6
49560,511,6
49566,510,6
49573,509,6
49581,490,6
49586,490,6
49593,499,6
49600,500,6
49606,499,6
49613,506,6
49620,492,6
49626,491,6
49633,501,6
49640,510,6
49646,509,6
49652,516,6
49660,513,6
49667,504,6
49673,510,6
49680,522,6
49686,522,6
49693,523,6
49700,522,6
49707,519,6
49713,521,6
49720,518,6
49726,522,6
49733,518,6
49739,519,6
49746,513,6
49754,511,6
49760,517,6
49766,502,6
49773,465,6
49780,422,6
49786,400,6
49794,395,6
49800,436,6
49806,502,6
49813,531,6
49820,538,6
49826,542,6
49833,545,6
49840,540,6
49846,539,6
49853,533,6
49860,530,6
49866,528,6
49873,533,6
49881,528,6
49886,528,6
49893,535,6
49900,540,6
49906,522,6
49913,508,6
49921,500,6
49926,506,6
49933,508,6
49939,506,6
49946,509,6
49953,507,6
49960,504,6
49967,505,6
49973,498,6
49980,490,6
49986,501,6
49993,500,6
50000,491,6
50007,491,6
50013,487,6
50020,480,6
50025,483,6
50033,470,6
50040,475,6
50046,494,6
50053,504,6
50060,489,6
50066,477,6
50073,491,6
50080,500,6
50086,515,6
50094,528,6
50100,525,6
50106,529,6
50112,541,6
50120,545,6
50126,538,6
50134,543,6
50140,543,6
50146,545,6
50153,549,6
50160,543,6
50166,548,6
50173,550,6
50181,533,6
50186,523,6
50193,535,6
50200,530,6
50206,526,6
50212,531,6
50221,520,6
50226,512,6
50233,519,6
50240,524,6
50246,523,6
50253,523,6
50260,511,6
50266,511,6
50273,514,6
50280,519,6
50286,524,6
50293,505,6
50299,493,6
50307,499,6
50313,515,6
50320,525,6
50326,526,6
50333,524,6
50340,510,6
50347,506,6
50353,512,6
50360,508,6
50366,502,6
50373,501,6
50380,499,6
50386,510,6
50394,518,5
50399,511,6
50406,494,6
50413,501,5
50420,520,5
50426,516,5
50434,516,5
50440,522,5
50446,527,5
50453,529,5
50460,516,5
50466,507,5
50473,506,5
50480,507,5
50486,509,5
50493,505,5
50499,499,5
50506,501,5
50513,501,5
50521,504,5
50526,501,5
50533,512,5
50540,513,5
50546,495,5
50553,491,5
50561,480,5
50566,474,5
50573,472,5
50580,483,5
50586,488,5
50593,490,5
50600,486,5
50606,499,5
50613,509,5
50620,502,5
50626,491,5
50633,493,5
50640,505,5
50647,502,5
50653,491,5
50660,489,5
50666,488,5
50673,507,5
50680,502,5
50685,497,5
50693,501,5
50700,506,5
50706,506,5
50713,500,5
50720,474,5
50726,422,5
50734,388,5
50740,361,5
50746,387,5
50753,464,5
50760,506,5
50766,511,5
50774,531,5
50780,544,5
50785,538,5
50793,546,5
50800,547,5
50806,526,5
50813,516,5
50820,524,5
50826,530,5
50833,521,5
50840,502,5
50846,499,5
50853,520,5
50861,525,5
50866,515,5
50873,514,5
50880,514,5
50886,518,5
50893,503,5
50900,536,5
50906,520,5
50913,476,5
50920,495,5
50926,502,5
50933,496,5
50940,490,5
50947,484,5
50953,486,5
50960,477,5
50966,474,5
50972,455,5
50980,488,5
50987,485,5
50993,477,5
51000,488,5
51006,487,5
51013,474,5
51020,482,5
51026,492,5
51034,490,5
51040,486,5
51046,495,5
51053,511,5
51059,522,5
51066,528,5
51073,528,5
51080,520,5
51086,527,5
51093,540,5
51100,533,5
51106,528,5
51113,531,5
51120,530,5
51126,523,5
51133,533,5
51140,537,5
51146,529,5
51153,526,5
51161,524,5
51166,528,5
51173,525,5
51180,525,5
51186,512,5
51193,492,5
51201,518,5
51206,522,5
51213,513,5
51220,511,5
51226,514,5
51233,515,5
51240,512,5
51245,511,5
51253,511,5
51260,502,5
51266,519,5
51273,498,5
51280,499,5
51287,525,5
51293,526,5
51300,521,5
51306,511,5
51313,519,5
51320,536,5
51326,495,5
51333,488,5
51340,496,5
51345,513,5
51353,499,5
51360,521,5
51366,520,5
51374,508,5
51380,509,5
51386,519,5
51393,513,5
51400,506,5
51406,501,5
51414,503,5
51420,515,5
51426,518,5
51432,508,5
51440,508,5
51446,513,5
51453,510,5
51461,509,5
51466,511,5
51473,514,5
51480,528,5
51486,514,5
51493,499,5
51501,503,5
51506,506,5
51513,494,5
51520,502,5
51526,508,5
51532,516,5
51540,497,5
51546,513,5
51553,521,5
51560,529,5
51566,519,5
51573,510,5
51580,509,5
51587,517,5
51593,524,5
51600,526,5
51606,521,5
51613,513,5
51619,512,5
51627,488,5
51633,488,5
51640,531,5
51646,523,5
51653,520,5
51660,517,5
51666,519,5
51674,522,5
51680,515,5
51686,508,5
51693,506,5
51700,508,5
51706,500,5
51714,506,5
51719,511,5
51726,513,5
51733,517,5
51740,515,5
51746,521,5
51753,522,5
51760,520,5
51766,526,5
51773,524,5
51780,530,5
51786,517,5
51793,502,5
51801,510,5
51806,510,5
51813,534,5
51819,522,5
51826,520,5
51832,522,5
51841,519,5
51846,517,5
51853,518,5
51860,522,5
51866,531,5
51873,509,5
51880,492,5
51887,488,5
51893,512,5
51900,521,5
51906,514,5
51913,495,5
51920,504,5
51927,512,5
51933,518,5
51940,509,5
51945,519,5
51953,527,5
51960,518,5
51966,520,5
51973,511,5
51980,508,5
51986,521,5
51993,526,5
52000,522,5
52006,532,5
52014,525,5
52020,519,5
52026,524,5
52033,527,5
52040,529,5
52045,537,5
52054,508,5
52060,469,5
52066,442,5
52073,391,5
52080,360,5
52086,394,5
52093,461,5
52101,518,5
52106,541,5
52113,555,5
52120,553,5
52126,547,5
52133,541,5
52141,538,5
52145,545,5
52153,550,5
52160,550,5
52166,560,5
52173,544,5
52180,523,5
52186,534,5
52193,527,5
52200,525,5
52206,524,5
52213,514,5
52220,512,5
52227,506,5
52233,505,5
52240,506,5
52245,513,5
52253,514,5
52260,509,5
52267,509,5
52273,510,5
52280,511,5
52286,515,5
52293,524,5
52300,484,5
52306,471,5
52314,464,5
52320,464,5
52326,474,5
52332,482,5
52340,480,5
52346,481,5
52354,479,5
52360,481,5
52366,488,5
52373,497,5
52380,499,5
52386,510,5
52393,521,5
52400,531,5
52406,531,5
52413,543,5
52419,544,5
52426,548,5
52433,555,5
52441,550,5
52446,559,5
52453,562,5
52460,550,5
52466,549,5
52473,552,5
52481,531,5
52486,523,5
52493,533,5
52500,532,5
52506,532,5
52513,530,5
52520,522,5
52526,522,5
52533,526,5
52540,530,5
52546,538,5
52553,519,5
52560,514,5
52567,528,5
52573,521,5
52580,492,5
52586,510,5
52593,514,5
52600,514,5
52606,516,5
52613,523,5
52620,504,5
52626,500,5
52633,506,5
52640,509,5
52646,512,5
52654,509,5
52660,507,5
52666,512,5
52673,507,5
52680,495,5
52686,502,5
52694,510,5
52700,509,5
52705,509,5
52713,518,5
52720,519,5
52726,508,5
52733,486,5
52740,482,5
52746,489,5
52753,493,5
52760,499,5
52766,501,5
52773,508,5
52781,518,5
52786,514,5
52793,507,5
52800,509,5
52805,511,5
52813,488,5
52820,486,5
52826,493,5
52833,500,5
52840,509,5
52846,518,5
52853,513,5
52860,499,5
52867,500,5
52873,500,5
52880,505,5
52886,507,5
52892,509,5
52900,515,5
52907,520,5
52913,523,5
52920,520,5
52926,508,5
52933,504,5
52940,505,5
52946,485,5
52954,480,5
52960,494,5
52966,502,5
52973,524,5
52979,525,5
52986,505,5
52994,494,5
53000,505,5
53006,509,5
53013,501,5
53020,447,5
53026,435,5
53033,488,5
53040,538,5
53046,544,5
53053,528,5
53060,539,5
53066,542,5
53073,537,5
53081,540,5
53086,512,5
53093,456,5
53100,430,5
53106,442,5
53113,508,5
53121,572,5
53126,570,5
53133,536,5
53140,481,5
53146,455,5
53153,460,5
53160,471,5
53167,526,5
53173,563,5
53180,554,5
53186,544,5
53193,477,5
53200,456,5
53207,464,5
53213,478,5
53220,470,5
53226,496,5
53233,507,5
53240,451,5
53246,454,5
53252,519,5
53260,529,5
53266,530,5
53273,536,5
53280,505,5
53286,518,5
53294,556,5
53300,550,5
53306,534,5
53313,517,5
53320,467,5
53326,421,5
53334,463,5
53339,517,5
53346,493,5
53353,376,5
53360,339,5
53366,336,5
53373,321,5
53381,410,5
53386,489,5
53393,548,5
53400,522,5
53406,525,5
53413,555,5
53421,550,5
53426,516,5
53433,514,5
53439,540,5
53446,539,5
53453,461,5
53460,492,5
53466,596,5
53473,663,5
53480,621,5
53486,574,5
53493,502,5
53500,492,5
53507,508,5
53513,492,5
53520,478,5
53526,467,5
53533,513,5
53539,514,5
53547,481,5
53553,527,5
53560,566,5
53566,581,5
53573,544,5
53580,431,5
53586,379,5
53594,415,5
53600,435,5
53606,429,5
53613,452,5
53620,503,5
53625,530,5
53634,563,5
53640,544,5
53646,544,5
53653,504,5
53660,336,5
53666,259,5
53673,412,5
53680,629,5
53686,651,5
53693,567,5
53700,449,5
53706,540,5
53712,562,5
53721,607,5
53726,694,5
53733,675,5
53740,575,5
53746,493,5
53753,567,5
53761,621,5
53766,550,5
53773,535,5
53780,584,5
53786,554,5
53793,437,5
53800,432,5
53807,438,5
53812,505,5
53820,532,5
53826,589,5
53833,665,5
53840,711,5
53847,593,5
53853,491,5
53860,461,5
53866,371,5
53873,388,5
53880,578,5
53886,733,5
53893,672,5
53900,492,5
53906,543,5
53913,725,5
53920,563,5
53925,436,5
53934,642,5
53940,625,5
53946,716,5
53953,595,5
53960,574,5
53966,438,5
53974,408,5
53980,464,5
53986,329,5
53993,464,5
54000,532,5
54006,596,5
54013,545,5
54021,566,5
54025,453,5
54033,519,5
54040,471,5
54046,201,5
54053,592,5
54061,732,5
54066,560,5
54073,579,5
54080,509,5
54086,467,5
54093,489,5
54100,501,5
54106,551,5
54113,426,5
54120,387,5
54125,379,5
54133,563,5
54140,660,5
54147,572,5
54153,469,5
54160,485,5
54166,542,5
54173,415,5
54180,468,5
54187,514,5
54193,527,5
54200,518,5
54206,523,5
54212,487,5
54220,442,5
54226,540,5
54234,701,5
54240,448,5
54246,419,5
54253,434,5
54260,447,5
54266,464,5
54274,334,5
54280,393,5
54286,557,5
54293,548,5
