TimeStamp,ECG Data,GSR Data
47,502,592
53,498,592
60,496,592
66,495,592
73,498,591
80,499,591
87,498,591
93,501,591
100,503,591
106,503,591
113,502,590
120,501,590
126,502,590
133,497,590
140,477,590
146,470,590
152,500,590
160,590,590
166,674,590
174,760,590
180,764,590
186,674,590
193,520,590
200,439,590
205,421,590
214,438,590
220,459,590
226,468,590
232,471,590
240,474,590
246,477,590
253,481,590
260,483,590
266,485,590
273,489,590
280,493,590
286,495,590
293,499,590
301,503,590
306,505,591
313,505,591
320,506,591
326,508,590
333,513,591
340,517,591
346,516,591
353,517,591
360,521,591
366,524,591
373,529,591
380,531,591
386,532,591
393,532,591
400,530,591
406,528,591
412,525,591
420,519,591
427,513,591
433,506,591
440,499,591
446,493,591
453,489,592
460,486,592
466,485,592
474,483,592
480,484,592
486,485,592
493,486,592
500,486,592
506,487,592
514,489,592
520,490,592
526,492,592
533,494,592
539,496,592
546,498,592
553,500,592
560,501,592
566,502,593
573,504,592
580,505,593
586,506,593
593,506,593
601,505,593
606,506,593
613,506,593
620,507,593
626,507,593
633,507,593
641,507,593
646,507,593
653,507,593
660,507,593
666,506,593
673,506,593
680,506,594
687,506,594
693,505,594
700,504,594
706,504,594
713,505,594
719,504,594
727,504,594
733,505,594
740,507,594
745,507,594
753,509,594
760,506,594
766,504,594
773,504,594
780,504,594
786,503,594
793,504,594
800,507,594
806,506,594
814,505,594
820,508,594
826,511,595
833,510,595
840,509,595
846,511,595
854,517,595
860,522,595
866,519,595
873,514,595
880,517,596
886,526,596
893,531,596
899,529,596
906,523,597
913,514,597
920,506,598
925,506,598
933,503,599
941,501,599
946,501,600
953,499,601
960,501,602
966,503,602
973,500,603
980,499,604
986,499,604
993,501,605
1000,499,606
1006,492,606
1013,465,607
1020,460,608
1027,506,609
1033,580,609
1040,684,610
1046,765,610
1052,766,611
1060,622,612
1067,489,612
1073,430,613
1080,415,613
1086,432,614
1093,450,614
1100,458,615
1106,464,615
1114,470,616
1120,468,616
1126,464,616
1133,466,617
1140,472,617
1146,477,617
1154,481,617
1160,483,618
1166,487,618
1173,489,618
1180,492,618
1186,496,618
1193,498,618
1200,500,618
1205,501,618
1213,504,619
1220,510,619
1226,513,619
1232,513,619
1241,517,619
1246,523,619
1253,526,619
1260,526,619
1266,527,619
1273,529,619
1281,529,619
1286,525,619
1293,519,619
1300,511,619
1306,505,619
1313,499,619
1320,493,619
1327,487,619
1333,483,619
1340,483,619
1346,485,619
1353,483,619
1360,481,619
1367,482,619
1373,484,619
1380,488,619
1385,489,619
1393,489,619
1400,490,619
1406,491,619
1413,493,619
1420,495,619
1426,499,619
1433,498,619
1440,498,619
1446,502,619
1454,506,619
1460,508,619
1466,505,619
1473,503,619
1480,507,619
1486,507,619
1494,505,619
1500,505,619
1506,504,619
1513,505,619
1520,506,619
1526,509,619
1533,512,619
1541,513,619
1546,510,619
1553,504,619
1560,505,619
1565,508,619
1573,510,619
1581,507,619
1586,506,619
1593,505,619
1600,506,619
1606,505,619
1613,504,619
1620,506,619
1626,506,619
1633,507,619
1640,510,619
1646,511,619
1653,509,619
1660,509,619
1667,511,619
1673,511,619
1680,508,619
1686,508,619
1692,510,619
1700,513,619
1707,510,619
1713,507,619
1719,508,620
1726,508,619
1733,509,620
1740,510,620
1746,511,620
1754,517,620
1760,517,620
1766,511,620
1773,507,620
1780,517,620
1786,522,620
1794,518,620
1800,518,620
1806,525,620
1813,529,620
1820,527,620
1826,523,620
1833,518,620
1840,513,620
1846,506,620
1853,502,621
1860,499,621
1866,498,621
1872,500,621
1881,501,621
1886,500,621
1893,501,621
1899,504,621
1906,506,621
1913,510,621
1921,512,621
1926,510,621
1933,487,621
1940,462,621
1946,470,621
1953,528,621
1960,636,621
1967,725,621
1973,788,621
1980,746,621
1986,607,621
1993,469,621
2000,420,621
2007,424,621
2013,447,621
2020,466,621
2026,472,621
2033,475,621
2040,479,621
2046,479,621
2053,482,621
2060,485,621
2066,488,622
2073,494,622
2079,494,622
2086,495,622
2094,496,622
2100,499,623
2105,501,623
2113,506,623
2120,511,623
2126,512,624
2134,511,624
2140,515,625
2146,518,625
2153,520,626
2160,523,626
2166,528,627
2173,530,628
2181,533,629
2186,536,629
2193,538,630
2200,536,631
2206,535,631
2213,530,632
2221,527,633
2226,521,633
2232,508,634
2240,497,635
2246,493,635
2253,491,636
2259,488,636
2266,485,637
2273,483,637
2280,485,638
2286,490,638
2293,491,638
2300,488,639
2307,491,639
2313,494,639
2320,492,639
2326,490,640
2333,492,640
2340,495,640
2347,499,640
2353,501,640
2360,502,640
2366,504,640
2373,507,640
2380,508,640
2386,511,640
2394,510,640
2400,511,640
2406,510,640
2412,505,640
2420,507,640
2426,509,640
2434,509,640
2440,508,639
2446,508,639
2453,511,639
2460,513,639
2466,514,638
2473,510,638
2480,508,637
2486,508,637
2493,508,636
2500,508,636
2506,506,635
2513,507,635
2521,510,634
2526,510,634
2533,513,633
2540,512,633
2546,506,632
2553,507,632
2561,510,631
2566,506,631
2573,505,630
2580,508,630
2586,507,629
2592,508,629
2600,511,628
2607,514,628
2613,512,628
2619,506,627
2626,504,627
2633,507,626
2640,507,626
2647,506,626
2653,506,625
2660,506,625
2666,509,625
2673,513,624
2680,517,624
2686,512,624
2693,507,624
2700,512,624
2706,524,624
2713,519,623
2720,511,623
2726,515,623
2734,525,623
2740,527,623
2746,522,623
2753,517,623
2760,510,622
2766,505,622
2772,503,622
2780,501,622
2786,503,622
2793,503,622
2799,502,622
2806,504,622
2813,501,622
2821,500,622
2826,498,622
2833,500,622
2840,504,622
2846,499,622
2853,483,622
2861,463,622
2866,474,622
2873,554,621
2880,639,621
2886,716,621
2893,777,621
2900,692,621
2906,592,621
2913,463,621
2920,416,621
2926,423,621
2933,449,621
2940,464,621
2947,473,621
2952,474,621
2960,477,621
2966,477,621
2973,478,621
2979,481,622
2987,479,622
2993,482,622
3000,486,622
3006,490,622
3013,493,623
3020,501,623
3026,507,623
3034,514,623
3040,508,624
3046,501,624
3053,512,624
3060,509,625
3066,511,625
3074,514,625
3080,520,626
3086,525,626
3093,531,627
3100,546,627
3106,545,628
3113,538,628
3120,533,629
3126,528,630
3132,522,631
3140,515,633
3146,509,634
3153,503,635
3160,499,636
3166,496,637
3173,499,637
3180,487,638
3186,474,638
3193,472,639
3201,475,639
3206,472,639
3213,474,639
3220,479,639
3226,482,638
3233,483,638
3240,488,637
3247,490,637
3253,489,636
3260,493,635
3266,500,634
3273,503,633
3280,504,632
3287,504,632
3293,507,631
3300,507,630
3306,502,630
3312,500,629
3320,503,629
3326,512,628
3333,515,627
3340,509,627
3346,504,626
3353,507,625
3360,507,625
3366,508,624
3374,509,624
3380,511,623
3386,510,623
3393,510,622
3400,510,622
3406,509,622
3414,507,621
3420,508,621
3426,509,621
3433,508,620
3440,509,620
3446,510,620
3453,510,619
3461,509,619
3465,508,619
3473,509,618
3480,510,618
3486,510,618
3493,510,618
3501,510,617
3506,509,617
3513,509,617
3520,510,616
3526,509,616
3533,509,616
3540,510,616
3546,509,615
3553,511,615
3560,514,615
3566,515,614
3573,518,614
3580,515,614
3587,515,614
3593,520,613
3600,527,613
3606,528,612
3613,522,612
3620,515,611
3627,509,611
3633,504,610
3640,500,610
3645,500,610
3653,501,609
3660,501,609
3666,499,608
3673,498,608
3680,498,608
3686,499,607
3693,499,607
3700,501,607
3706,503,606
3714,496,606
3720,477,606
3726,465,605
3733,485,605
3740,572,605
3746,662,604
3753,748,604
3760,784,604
3766,699,603
3773,535,603
3780,445,602
3786,415,602
3793,433,601
3801,460,601
3806,466,601
3813,471,600
3820,476,599
3826,479,599
3833,482,598
3841,485,598
3846,487,597
3852,491,597
3860,495,596
3866,498,596
3873,500,595
3879,502,595
3887,503,595
3893,504,594
3900,506,593
3906,507,593
3913,510,593
3920,515,592
3927,519,592
3933,522,592
3940,526,591
3946,530,591
3953,533,590
3960,536,590
3966,537,590
3973,538,590
3980,538,589
3986,538,589
3993,536,589
4000,530,588
4006,523,588
4014,517,588
4020,508,588
4026,497,588
4032,490,587
4040,485,587
4046,483,587
4054,483,587
4059,483,587
4066,482,587
4073,481,586
4080,483,586
4085,486,586
4093,488,586
4101,490,586
4106,490,586
4113,491,586
4120,493,586
4126,495,586
4133,498,586
4141,499,585
4146,499,585
4153,502,585
4160,505,585
4166,506,585
4173,508,585
4180,505,585
4186,505,585
4193,506,585
4200,504,585
4206,504,586
4212,507,586
4220,508,586
4227,509,586
4233,508,586
4239,508,586
4246,508,586
4253,508,587
4260,507,587
4267,506,587
4273,506,587
4280,506,588
4286,507,588
4293,506,588
4300,504,589
4306,506,589
4314,508,590
4320,508,590
4326,508,590
4333,508,591
4340,510,591
4346,510,591
4354,507,592
4360,506,592
4366,506,592
4373,509,592
4380,516,593
4386,518,593
4392,517,593
4400,518,594
4406,524,594
4413,530,595
4419,527,595
4426,519,595
4433,515,595
4441,505,596
4446,499,596
4453,497,596
4460,501,597
4466,500,597
4473,499,597
4481,499,598
4486,500,598
4493,499,598
4500,497,599
4506,500,599
4513,504,600
4520,500,600
4526,493,600
4533,474,601
4540,468,601
4546,499,602
4553,582,602
4560,683,602
4567,760,603
4573,768,603
4580,657,604
4586,520,604
4593,428,604
4599,413,605
4606,438,605
4613,460,605
4620,466,606
4626,471,606
4633,478,607
4640,480,607
4646,482,608
4654,487,609
4660,489,609
4666,489,610
4673,490,610
4680,493,611
4686,496,612
4694,500,612
4700,503,613
4706,504,614
4713,506,615
4720,510,615
4726,513,616
4733,516,617
4741,522,618
4746,523,618
4753,522,619
4760,525,619
4766,530,620
4773,534,621
4781,536,621
4786,538,622
4793,538,623
4800,540,623
4805,538,624
4813,530,624
4820,521,625
4826,514,626
4833,505,626
4840,497,627
4846,491,628
4853,484,629
4860,480,629
4867,480,630
4873,481,631
4880,482,631
4886,481,631
4893,480,632
4900,483,632
4907,485,632
4913,486,632
4920,490,632
4926,493,631
4933,494,631
4940,497,630
4946,501,630
4954,497,629
4960,496,629
4966,496,628
4973,499,628
4980,504,627
4986,504,627
4994,502,626
5000,503,626
5006,507,625
5012,507,625
5020,506,624
5026,507,623
5033,505,623
5039,503,622
5046,504,622
5053,507,621
5060,505,621
5066,503,620
5073,504,620
5081,504,619
5086,505,619
5093,506,619
5100,506,618
5106,508,617
5113,507,617
5121,507,616
5126,508,615
5133,511,614
5140,516,614
5146,516,613
5153,516,611
5160,521,610
5167,527,609
5173,530,608
5180,526,607
5186,520,605
5192,513,604
5200,505,602
5207,501,601
5213,500,599
5219,501,598
5226,499,597
5233,499,595
5240,499,594
5246,501,593
5253,502,592
5260,503,591
5266,503,590
5273,504,589
5280,504,588
5286,493,587
5294,470,586
5300,464,585
5306,494,584
5313,586,584
5320,682,583
5326,749,582
5334,760,581
5340,643,581
5346,512,580
5353,434,579
5360,416,579
5366,438,578
5372,461,577
5381,470,577
5386,474,576
5393,478,576
5399,481,575
5406,488,575
5413,491,574
5421,486,574
5426,486,573
5433,490,573
5440,495,572
5446,497,572
5453,499,572
5460,502,571
5466,504,571
5473,508,571
5480,511,570
5486,512,570
5493,516,570
5500,520,569
5507,524,569
5513,527,569
5520,531,568
5526,533,568
5533,536,568
5540,538,568
5547,539,568
5552,539,567
5560,536,567
5566,531,567
5573,524,567
5579,518,567
5586,511,566
5594,502,566
5600,495,566
5606,490,566
5613,484,565
5620,482,565
5626,480,565
5634,479,565
5640,480,565
5646,481,565
5653,484,564
5660,485,564
5666,487,564
5673,488,564
5680,483,564
5686,483,563
5693,490,563
5700,494,563
5706,497,563
5713,498,563
5721,499,562
5726,501,562
5733,503,562
5740,505,562
5746,506,562
5753,505,562
5760,506,562
5766,506,561
5773,501,561
5780,500,561
5785,502,561
5793,504,561
5800,502,561
5807,501,561
5813,502,561
5820,503,560
5826,506,560
5833,511,560
5840,512,560
5847,512,560
5853,518,560
5860,527,560
5866,530,560
5873,531,560
5880,525,560
5886,515,560
5893,506,560
5900,497,560
5906,494,559
5912,493,559
5920,493,559
5926,495,559
5934,496,559
5939,497,559
5946,497,559
5953,496,559
5960,494,559
5966,495,559
5974,497,559
5980,496,559
5986,485,559
5993,466,559
6000,462,559
6006,505,559
6013,604,559
6020,671,559
6026,747,559
6033,746,559
6040,598,558
6046,494,558
6053,420,558
6061,414,558
6066,437,558
6073,463,558
6080,475,558
6086,472,558
6092,467,558
6100,471,558
6106,477,558
6113,483,558
6119,486,558
6126,491,558
6133,495,558
6140,499,558
6147,501,557
6153,504,557
6160,506,557
6166,510,557
6173,516,557
6180,516,557
6187,512,557
6193,514,557
6200,517,557
6206,520,557
6213,524,557
6220,528,557
6226,530,557
6234,533,557
6240,535,557
6246,536,557
6253,536,557
6260,533,557
6266,529,557
6273,523,557
6280,516,557
6286,509,557
6293,500,557
6299,495,557
6306,489,557
6313,484,556
6320,483,556
6326,481,556
6333,480,556
6340,480,556
6346,481,556
6353,483,556
6361,485,556
6366,487,556
6373,489,556
6380,491,556
6386,494,556
6393,497,556
6401,498,556
6406,499,556
6413,501,555
6420,501,555
6426,502,555
6433,502,555
6440,504,555
6447,505,555
6452,505,555
6460,504,555
6466,505,554
6473,505,554
6479,504,554
6487,504,554
6493,504,554
6500,507,554
6506,510,554
6513,512,554
6520,514,554
6526,517,554
6533,522,554
6540,530,553
6546,531,553
6553,523,553
6560,515,553
6566,508,553
6574,499,553
6580,495,553
6586,494,553
6593,493,553
6600,494,553
6606,495,553
6614,496,553
6620,496,552
6626,497,552
6632,499,552
6640,500,552
6646,501,552
6653,500,552
6659,494,552
6666,479,552
6673,473,552
6680,521,552
6686,589,552
6693,671,552
6701,744,552
6706,747,552
6713,640,552
6720,501,552
6726,431,552
6733,414,552
6740,432,552
6746,454,551
6753,470,551
6760,477,551
6766,480,551
6773,482,551
6780,486,551
6787,489,551
6793,492,551
6800,495,551
6806,498,551
6812,500,551
6820,502,551
6827,503,551
6833,505,551
6839,507,551
6846,508,551
6853,511,550
6860,515,550
6866,517,550
6874,519,550
6880,522,550
6886,525,550
6893,528,550
6900,530,550
6906,532,550
6914,534,550
6920,534,550
6926,532,550
6933,530,550
6940,527,550
6946,523,550
6953,517,550
6960,511,550
6966,505,550
6973,499,550
6980,494,549
6986,490,549
6993,488,549
7001,487,549
7006,487,549
7013,486,549
7019,488,549
7026,489,549
7033,492,549
7041,494,549
7046,495,549
7053,497,549
7060,499,549
7066,501,549
7073,502,549
7080,504,549
7087,504,549
7093,505,548
7100,506,548
7106,507,548
7113,508,548
7120,507,548
7127,507,548
7133,508,548
7140,508,548
7146,510,548
7153,513,548
7160,513,548
7166,513,548
7173,515,548
7180,522,548
7186,528,548
7193,532,548
7199,526,548
7206,516,548
7214,508,548
7220,501,548
7226,496,548
7233,493,548
7240,491,548
7246,491,548
7254,492,547
7260,493,547
7266,494,547
7273,496,547
7280,497,547
7286,498,547
7293,499,547
7301,499,547
7306,495,547
7313,477,547
7320,467,547
7326,497,547
7333,578,547
7341,675,547
7346,741,547
7353,775,547
7360,676,547
7366,532,547
7373,429,547
7379,406,547
7386,420,547
7393,451,547
7400,465,547
7405,469,547
7413,473,547
7420,476,547
7427,478,547
7433,481,547
7440,486,547
7446,488,547
7453,492,547
7460,494,547
7467,497,546
7473,499,546
7480,501,546
7486,503,546
7493,504,546
7500,507,546
7506,510,546
7514,513,546
7520,516,546
7526,518,546
7533,520,546
7540,522,546
7546,524,546
7554,527,546
7560,528,546
7566,528,546
7573,528,546
7580,526,546
7585,525,546
7593,521,546
7600,514,546
7606,509,546
7613,503,546
7620,498,546
7626,494,546
7633,491,546
7641,489,546
7646,488,545
7653,488,546
7660,489,545
7666,489,545
7673,490,545
7681,492,545
7686,492,545
7693,494,545
7700,496,545
7706,498,545
7713,499,545
7720,501,545
7727,502,545
7733,504,545
7739,504,545
7746,505,545
7753,505,545
7760,505,545
7766,506,545
7773,506,545
7780,506,545
7786,508,545
7793,511,545
7800,515,545
7806,514,545
7813,516,544
7820,523,544
7826,529,544
7833,531,544
7840,526,544
7846,518,544
7854,508,544
7860,499,544
7866,494,544
7873,491,544
7880,490,544
7886,489,544
7894,490,544
7900,491,544
7906,493,544
7913,494,544
7919,495,544
7926,496,544
7933,497,544
7941,498,544
7946,495,544
7953,479,544
7960,462,544
7966,482,544
7973,557,544
7981,666,544
7986,741,543
7993,792,544
8000,709,543
8006,555,543
8013,438,543
8020,410,543
8026,422,543
8033,450,543
8040,462,543
8046,467,543
8053,470,543
8060,473,543
8067,476,543
8073,479,543
8080,482,543
8086,485,543
8093,489,543
8099,492,543
8107,495,543
8113,496,543
8120,498,542
8125,500,542
8133,503,542
8140,505,542
8146,509,542
8153,511,542
8160,514,542
8166,516,542
8173,519,542
8180,522,542
8186,524,542
8194,526,542
8200,526,542
8206,527,542
8213,527,541
8220,525,541
8226,524,541
8233,521,541
8240,516,541
8246,512,541
8253,506,541
8260,501,541
8266,497,541
8273,493,541
8280,491,541
8286,490,541
8293,489,541
8300,489,541
8305,490,541
8313,492,541
8321,494,541
8326,495,540
8333,496,540
8340,498,540
8346,499,540
8353,501,540
8360,502,540
8367,504,540
8373,505,540
8380,505,540
8386,505,540
8393,504,540
8400,504,540
8407,505,540
8413,506,540
8420,510,540
8426,514,540
8433,514,540
8440,514,540
8446,518,540
8453,524,540
8459,529,540
8466,531,539
8473,523,539
8480,513,539
8486,507,539
8494,499,539
8500,495,539
8506,493,539
8513,492,539
8520,493,539
8526,495,539
8534,495,539
8540,496,539
8546,497,539
8553,499,539
8560,500,539
8566,501,539
8573,501,539
8581,488,539
8586,471,539
8593,463,539
8600,508,539
8606,599,539
8613,702,539
8621,782,539
8626,786,539
8633,646,539
8639,504,539
8646,426,539
8653,412,538
8660,440,538
8666,455,538
8673,465,538
8680,469,538
8686,473,538
8693,477,538
8700,480,538
8707,483,538
8713,486,538
8720,490,538
8726,493,538
8733,495,538
8740,497,538
8747,499,538
8753,501,538
8760,504,538
8766,506,538
8773,509,538
8780,512,538
8786,515,538
8794,517,538
8800,519,538
8806,522,538
8813,525,538
8819,526,538
8826,527,538
8834,529,538
8840,531,538
8846,530,538
8853,527,538
8860,523,538
8866,520,537
8873,515,537
8880,510,537
8886,505,537
8893,500,537
8900,496,537
8906,492,537
8913,489,537
8921,489,537
8926,489,537
8933,489,537
8940,490,537
8946,492,537
8953,494,537
8961,497,537
8966,498,537
8973,500,537
8980,501,537
8986,503,537
8993,504,537
8999,505,537
9007,506,537
9013,506,537
9020,507,537
9026,508,537
9033,509,537
9040,509,536
9047,510,536
9053,513,536
9060,516,536
9066,514,536
9073,513,536
9080,518,536
9086,525,536
9093,531,536
9100,530,536
9106,523,536
9113,514,536
9120,506,536
9126,498,536
9134,494,536
9140,493,536
9146,492,536
9152,493,536
9160,493,536
9166,495,536
9174,496,536
9179,498,536
9186,499,536
9193,500,536
9200,501,535
9206,500,536
9213,489,535
9221,467,535
9226,464,535
9233,504,535
9240,604,535
9246,687,535
9253,770,535
9261,757,535
9266,647,535
9273,492,535
9280,418,535
9286,410,535
9293,437,535
9300,462,535
9306,468,535
9313,472,535
9320,475,535
9326,479,535
9332,481,535
9340,485,535
9347,488,535
9353,491,535
9359,493,535
9366,495,535
9373,498,535
9380,501,535
9387,504,535
9393,506,535
9400,507,535
9406,510,535
9413,512,535
9420,514,535
9426,516,535
9434,521,535
9440,522,535
9446,525,535
9453,526,535
9460,528,535
9466,528,535
9474,529,535
9480,528,535
9486,527,534
9493,526,534
9500,521,534
9506,516,534
9512,510,534
9520,505,534
9526,500,534
9533,496,534
9539,492,534
9546,490,534
9553,490,534
9561,490,534
9566,491,534
9573,492,534
9580,494,534
9586,495,534
9593,498,534
9601,500,534
9606,504,534
9613,508,534
9620,508,534
9626,509,534
9633,508,534
9640,500,534
9646,497,534
9653,498,534
9660,501,534
9666,504,534
9673,505,534
9680,506,534
9687,509,534
9693,512,534
9700,513,534
9706,513,534
9713,517,534
9719,524,534
9726,531,534
9733,533,534
9740,526,534
9746,518,534
9753,508,534
9760,499,534
9766,494,534
9774,493,534
9780,492,534
9786,492,534
9793,492,534
9800,493,534
9806,494,534
9814,496,534
9820,496,534
9826,498,533
9833,499,533
9840,499,533
9846,493,533
9853,478,533
9861,469,533
9866,491,533
9872,563,533
9880,659,533
9886,739,533
9893,767,533
9900,656,533
9906,536,533
9913,430,533
9920,409,533
9926,429,533
9933,460,533
9940,471,533
9946,472,533
9953,473,532
9960,477,532
9966,480,532
9973,484,532
9980,488,532
9987,490,532
9993,494,532
10000,497,532
10006,500,532
10013,503,532
10020,504,532
10027,507,532
10033,508,532
10040,509,532
10046,512,532
10052,516,532
10060,518,532
10066,518,531
10074,519,531
10079,521,531
10086,524,531
10093,527,531
10100,528,531
10106,529,531
10114,530,531
10120,528,531
10126,525,531
10133,521,531
10140,515,531
10146,511,531
10153,506,531
10160,502,531
10166,500,531
10173,496,531
10180,490,531
10186,488,531
10193,489,531
10201,492,531
10206,495,531
10213,498,531
10220,507,531
10226,509,531
10233,512,531
10241,516,531
10246,514,531
10253,505,531
10259,504,531
10266,506,531
10273,506,531
10280,504,531
10286,504,531
10293,504,531
10300,503,531
10306,504,531
10313,503,531
10320,502,531
10327,506,531
10333,509,531
10340,509,531
10346,507,531
10353,511,531
10360,520,531
10366,525,531
10373,526,531
10380,519,531
10386,510,531
10393,502,531
10400,494,531
10406,490,531
10414,489,532
10420,488,532
10426,488,532
10433,489,532
10440,490,532
10446,493,532
10454,495,533
10460,496,533
10465,496,533
10473,498,533
10480,498,533
10486,488,533
10492,469,533
10501,463,534
10506,496,534
10513,594,534
10520,679,534
10526,756,534
10533,758,534
10541,606,534
10546,514,534
10553,422,534
10560,410,534
10566,437,535
10573,461,535
10580,468,535
10586,471,535
10593,474,535
10600,478,535
10606,482,535
10613,485,535
10620,487,535
10627,490,535
10633,495,535
10640,498,535
10646,499,535
10653,502,535
10660,504,535
10667,506,535
10672,508,535
10680,510,535
10686,511,535
10693,514,535
10699,517,535
10706,520,535
10714,523,535
10720,524,535
10726,526,535
10733,529,535
10740,530,535
10746,530,535
10754,529,535
10760,528,535
10766,526,535
10773,519,535
10780,514,535
10786,507,535
10793,502,535
10800,499,535
10806,495,535
10813,490,535
10820,488,535
10826,488,534
10833,488,534
10841,489,534
10846,490,534
10852,492,534
10860,494,534
10866,495,534
10873,499,534
10880,500,534
10886,501,534
10893,502,534
10900,503,534
10906,504,534
10913,505,534
10920,504,534
10927,504,534
10933,505,534
10940,503,534
10946,503,534
10953,503,534
10960,504,534
10967,507,534
10973,511,534
10980,510,533
10986,511,534
10993,517,534
11000,525,533
11006,530,533
11013,528,533
11020,518,533
11026,508,533
11033,500,533
11040,495,533
11046,492,533
11054,490,533
11059,489,533
11066,490,533
11073,490,533
11080,490,533
11086,492,533
11094,494,533
11100,495,533
11106,496,533
11113,498,533
11120,496,533
11126,484,533
11133,465,533
11140,467,533
11146,514,533
11153,612,533
11160,701,533
11166,757,533
11173,728,533
11181,570,533
11186,473,533
11193,417,533
11200,412,533
11206,438,533
11212,460,533
11220,469,533
11226,472,533
11233,475,533
11239,479,532
11246,482,532
11253,485,533
11260,488,532
11267,490,532
11273,494,532
11280,497,532
11286,499,533
11293,502,532
11300,505,533
11307,507,532
11313,508,532
11320,510,532
11326,512,533
11333,515,532
11340,516,533
11346,518,532
11354,522,533
11360,523,532
11366,524,532
11373,526,532
11380,527,532
11386,528,532
11393,526,532
11400,524,532
11406,521,532
11413,516,532
11419,511,532
11426,505,532
11433,500,532
11440,496,532
11446,493,532
11453,491,532
11460,491,532
11466,490,532
11473,490,532
11481,489,532
11486,491,532
11493,493,532
11500,494,532
11506,496,532
11513,499,532
11521,501,532
11526,502,532
11533,504,532
11540,504,532
11546,506,532
11553,506,532
11560,506,532
11567,506,532
11573,506,532
11580,507,532
11586,508,532
11593,510,532
11599,513,532
11607,515,532
11613,515,532
11620,516,532
11626,522,532
11633,531,532
11640,532,532
11646,525,532
11653,518,532
11660,509,532
11666,502,532
11673,496,532
11680,495,532
11686,496,532
11694,497,532
11700,494,532
11706,492,532
11713,492,532
11720,493,532
11726,499,532
11734,506,532
11740,504,532
11746,500,532
11753,491,532
11760,475,532
11766,462,532
11773,487,532
11781,580,532
11786,638,533
11793,727,533
11800,769,533
11805,700,533
11813,536,533
11821,429,533
11826,404,533
11833,417,533
11840,448,533
11846,464,533
11853,474,533
11860,477,533
11866,479,533
11873,482,534
11880,485,534
11886,488,534
11893,491,534
11900,495,534
11907,497,535
11913,500,535
11920,502,535
11926,504,535
11933,505,535
11940,506,536
11947,509,536
11953,512,536
11959,515,536
11966,518,536
11973,520,536
11980,522,536
11985,523,536
11994,527,536
12000,527,536
12006,528,536
12013,533,536
12020,529,536
12026,523,536
12034,520,536
12040,515,536
12046,510,536
12053,506,536
12060,501,536
12066,499,536
12073,496,536
12080,494,536
12086,494,536
12093,493,536
12100,491,536
12106,491,536
12113,493,536
12121,494,536
12126,497,536
12133,498,536
12140,499,536
12146,500,536
12153,502,536
12161,504,536
12166,505,536
12173,505,536
12180,507,536
12186,508,536
12192,507,536
12200,508,536
12207,510,536
12213,510,536
12219,507,536
12226,505,536
12233,505,536
12240,507,536
12247,512,536
12253,517,536
12260,519,536
12266,512,536
12273,513,536
12280,524,536
12286,530,536
12293,534,536
12300,531,536
12306,522,536
12313,510,537
12320,500,536
12326,495,536
12334,495,536
12340,494,537
12346,493,537
12353,493,536
12360,492,536
12366,494,537
12372,495,536
12380,496,536
12386,498,537
12393,500,536
12399,500,536
12406,497,536
12413,477,536
12421,460,536
12426,467,536
12433,537,536
12440,647,536
12446,736,536
12453,787,537
12461,697,537
12466,568,537
12473,445,537
12480,414,537
12486,429,536
12493,457,536
12500,466,536
12506,469,536
12513,473,536
12520,477,536
12526,479,536
12533,483,536
12540,486,536
12547,491,536
12553,492,536
12560,491,536
12566,492,536
12573,494,536
12579,498,536
12587,503,536
12593,506,536
12600,508,536
12606,513,536
12613,518,536
12620,518,536
12626,518,536
12634,521,536
12640,522,536
12646,522,536
12653,523,536
12660,527,536
12666,529,536
12674,528,536
12680,527,536
12686,525,536
12693,521,536
12700,516,536
12706,511,536
12713,505,536
12720,501,536
12726,498,536
12733,493,536
12740,490,536
12746,490,536
12753,489,536
12760,489,535
12766,490,536
12773,491,536
12780,493,535
12786,495,535
12793,497,535
12801,497,535
12806,500,535
12813,502,535
12820,502,535
12826,503,535
12833,504,535
12840,505,535
12847,506,535
12853,507,535
12860,507,535
12866,507,535
12873,505,535
12880,505,535
12887,506,535
12893,506,535
12900,506,535
12906,510,535
12913,514,535
12920,514,535
12926,513,535
12933,519,535
12939,526,535
12946,532,535
12953,532,535
12960,523,535
12966,515,535
12974,505,535
12980,498,535
12986,493,535
12993,490,535
13000,490,535
13006,491,535
13014,494,535
13020,494,535
13026,495,535
13033,495,535
13040,498,534
13046,498,535
13053,496,534
13061,496,534
13066,486,534
13073,466,534
13080,462,534
13086,501,534
13093,605,534
13101,696,534
13106,769,534
13113,767,534
13119,633,534
13126,494,534
13133,418,534
13140,418,534
13145,437,534
13153,460,534
13160,468,534
13166,473,534
13173,475,534
13180,478,534
13187,481,534
13193,485,534
13200,488,534
13206,490,534
13213,493,534
13220,497,534
13227,499,534
13233,500,534
13240,502,534
13246,506,534
13253,507,534
13260,509,534
13266,511,534
13274,514,534
13280,515,534
13286,516,534
13293,520,534
13300,524,534
13306,526,534
13314,527,534
13320,527,534
13325,528,534
13333,526,534
13340,523,534
13346,520,534
13353,517,534
13360,512,534
13366,505,534
13373,500,534
13380,499,534
13386,495,534
13393,489,534
13401,488,534
13406,489,534
13413,490,534
13420,490,534
13426,492,534
13433,492,534
13441,495,534
13446,498,534
13453,500,534
13460,500,534
13466,501,534
13473,502,534
13479,503,534
13487,504,534
13493,504,534
13500,506,534
13506,507,534
13513,506,533
13520,507,534
13527,507,533
13533,506,533
13540,505,533
13546,506,533
13553,505,533
13560,504,533
13566,504,533
13573,504,533
13580,504,533
13586,506,533
13593,509,533
13600,514,533
13606,514,533
13614,519,533
13620,525,533
13626,530,533
13633,532,533
13640,527,533
13646,516,533
13654,507,533
13660,499,533
13666,495,533
13673,493,533
13680,492,533
13685,493,533
13693,492,533
13701,494,533
13706,494,533
13713,495,533
13720,496,533
13726,497,533
13733,500,533
13741,499,533
13746,492,533
13753,468,533
13760,461,533
13766,490,533
13773,588,533
13780,689,533
13786,759,533
13793,770,533
13800,628,533
13806,493,533
13812,423,533
13820,414,533
13827,441,533
13833,464,533
13839,472,533
13846,475,533
13853,476,533
13860,478,533
13867,481,533
13873,486,533
13880,490,533
13886,492,533
13893,494,533
13900,497,533
13906,499,533
13914,502,533
13920,503,533
13926,505,533
13933,508,533
13940,513,533
13946,515,533
13954,516,533
13960,518,533
13966,520,533
13973,522,533
13980,525,533
13986,528,533
13992,529,533
14000,531,533
14006,532,533
14013,530,533
14020,528,533
14026,524,533
14033,519,533
14041,514,533
14046,509,533
14053,503,533
14060,498,533
14066,494,533
14073,491,533
14081,489,533
14086,488,533
14093,488,533
14100,488,533
14106,489,533
14113,490,533
14119,492,533
14127,495,533
14133,496,533
14140,499,533
14145,501,533
14153,503,533
14160,504,533
14167,504,533
14173,505,533
14180,505,533
14186,507,533
14193,507,533
14200,507,533
14206,506,533
14213,505,533
14220,504,533
14226,504,533
14233,503,533
14240,505,533
14246,505,533
14254,505,533
14260,504,533
14266,504,533
14272,505,533
14280,504,533
14286,507,533
14294,513,533
14300,515,533
14306,513,533
14313,519,533
14320,526,533
14326,530,533
14333,531,533
14341,523,533
14346,516,533
14353,510,533
14360,500,533
14366,494,533
14373,494,533
14381,494,533
14386,494,533
14393,494,533
14399,495,533
14406,495,533
14413,496,533
14420,500,533
14425,500,533
14433,500,532
14440,499,533
14446,492,532
14453,471,532
14460,462,532
14467,496,532
14473,577,532
14480,659,532
14486,738,532
14493,751,533
14500,610,533
14507,505,532
14513,430,532
14520,412,532
14526,435,532
14533,461,532
14540,472,532
14546,475,533
14554,481,532
14560,483,533
14566,485,532
14573,488,532
14579,491,533
14586,493,532
14594,496,532
14600,496,532
14606,499,532
14613,504,533
14620,506,533
14626,510,533
14633,511,533
14640,514,532
14646,517,533
14653,520,533
14660,522,533
14666,525,533
14673,526,533
14681,527,533
14686,529,533
14693,532,533
14700,533,533
14706,532,533
14713,531,533
14721,528,533
14726,525,533
14732,519,533
14740,513,533
14746,508,533
14753,501,533
14759,496,533
14767,491,533
14773,489,533
14780,487,533
14786,486,533
14793,486,533
14800,487,533
14807,488,533
14813,490,533
14820,493,533
14826,494,533
14833,495,533
14840,497,533
14846,498,533
14853,500,533
14860,501,533
14866,503,533
14873,504,533
14880,505,533
14886,504,533
14894,505,533
14900,506,533
14906,507,533
14912,506,533
14920,506,533
14926,507,533
14934,506,533
14940,505,533
14946,503,533
14953,503,533
14960,504,533
14966,504,533
14973,504,533
14981,505,533
14986,503,533
14993,502,533
15000,507,533
15006,512,533
15013,514,532
15021,516,532
15026,518,533
15033,524,533
15039,528,532
15046,533,533
15053,528,532
15060,516,533
15066,511,532
15073,502,533
15080,497,533
15086,495,532
15093,495,532
15100,502,532
15107,498,532
15113,493,532
15120,493,532
15126,495,532
15133,496,532
15140,499,532
15147,500,532
15153,500,532
15160,490,532
15166,471,533
15173,461,532
15180,501,532
15186,585,532
15193,666,533
15200,742,533
15206,757,533
15213,627,533
15219,502,533
15226,430,533
15234,413,533
15240,436,533
15246,460,533
15253,474,533
15260,478,533
15266,481,533
15273,483,533
15280,486,533
15286,490,533
15293,493,533
15300,496,533
15306,498,533
15313,500,533
15321,503,533
15326,504,533
15333,507,533
15340,508,533
15346,510,533
15353,512,533
15361,515,533
15366,517,533
15372,519,533
15380,522,533
15386,524,533
15393,528,533
15400,530,533
15407,532,533
15413,532,533
15420,532,533
15426,531,533
15433,529,533
15440,525,533
15447,519,533
15453,514,533
15460,508,533
15466,503,533
15473,496,533
15480,492,533
15486,489,533
15493,486,533
15499,484,533
15506,484,533
15513,485,533
15520,487,532
15525,489,532
15534,491,532
15540,493,532
15546,493,532
15553,495,532
15560,498,532
15566,500,532
15574,501,532
15580,501,532
15586,501,532
15593,501,532
15600,502,532
15606,503,532
15613,503,531
15621,503,531
15626,503,531
15633,507,531
15640,508,531
15646,507,531
15652,502,531
15661,500,531
15666,500,531
15673,500,531
15680,501,531
15686,502,531
15693,502,531
15700,504,531
15706,506,531
15713,511,531
15720,511,531
15726,512,531
15733,518,531
15740,525,531
15747,529,531
15753,528,531
15760,521,531
15766,513,531
15773,504,531
15780,497,531
15787,495,531
15793,493,531
15800,493,531
15805,493,532
15813,495,532
15820,497,532
15826,497,532
15833,497,532
15840,498,532
15846,499,532
15853,500,532
15860,498,532
15866,484,532
15874,465,532
15880,473,532
15886,519,532
15893,612,532
15900,696,532
15906,752,532
15913,712,532
15920,580,532
15926,473,532
15933,419,532
15940,417,532
15946,442,532
15953,467,532
15961,476,532
15966,478,532
15973,481,532
15980,483,532
15985,487,532
15993,492,532
16001,495,532
16006,495,532
16013,498,532
16020,500,532
16026,504,533
16033,505,532
16040,507,533
16047,509,532
16053,512,533
16060,515,533
16066,517,533
16073,521,533
16080,523,533
16087,525,533
16093,527,533
16100,529,533
16106,530,533
16112,532,533
16120,533,533
16126,532,533
16133,530,533
16140,526,533
16146,521,533
16153,516,533
16160,510,533
16166,504,533
16174,498,533
16180,495,533
16186,492,533
16193,489,533
16200,488,533
16206,487,533
16214,488,533
16220,488,533
16226,489,533
16233,491,533
16239,493,533
16246,495,533
16253,496,533
16261,499,533
16265,500,533
16273,501,533
16280,502,533
16286,504,533
16293,504,533
16301,506,533
16306,507,533
16313,507,533
16320,508,533
16326,508,533
16333,507,533
16340,508,533
16346,508,533
16353,507,533
16360,506,533
16366,506,533
16373,506,533
16380,507,533
16387,511,533
16392,513,533
16400,514,534
16406,514,534
16413,522,533
16419,528,534
16427,533,533
16433,532,533
16440,523,534
16446,516,534
16453,507,534
16460,499,534
16466,497,534
16474,495,534
16480,494,534
16486,495,534
16493,496,534
16500,496,534
16506,497,534
16514,498,534
16520,499,534
16526,500,534
16533,502,534
16540,499,534
16546,485,534
16553,467,534
16560,469,534
16566,517,534
16572,601,534
16580,690,534
16586,757,534
16593,723,534
16600,587,534
16606,489,534
16613,424,534
16620,418,534
16626,440,534
16633,466,534
16641,476,534
16646,479,534
16653,482,534
16660,485,534
16666,488,534
16673,490,534
16680,493,534
16687,496,534
16693,499,534
16700,501,534
16706,503,534
16713,506,534
16720,507,534
16727,509,534
16733,510,534
16740,514,534
16746,517,534
16752,519,534
16760,522,534
16766,525,534
16773,527,534
16779,529,534
16786,531,534
16793,532,534
16800,534,534
16806,533,534
16814,530,534
16820,527,534
16826,523,534
16833,518,534
16840,512,534
16846,505,534
16854,500,534
16860,496,534
16866,492,534
16873,489,534
16880,487,534
16886,487,534
16893,487,534
16901,488,534
16906,489,534
16913,490,534
16920,491,534
16926,493,534
16933,495,534
16941,497,535
16946,498,534
16953,498,534
16959,500,535
16966,502,535
16973,504,535
16980,506,534
16986,506,535
16993,506,535
17000,506,535
17006,505,535
17013,505,535
17020,506,535
17027,506,535
17033,506,535
17040,505,535
17046,505,535
17053,504,535
17060,504,535
17067,504,535
17073,505,535
17080,505,535
17086,507,535
17093,510,535
17100,515,535
17106,514,535
17114,519,535
17120,525,535
17126,529,535
17133,533,535
17139,530,535
17146,522,535
17154,513,535
17160,505,535
17166,499,535
17173,495,535
17180,495,535
17186,495,535
17193,495,535
17200,495,535
17206,495,535
17213,496,535
17220,498,535
17226,499,535
17233,499,535
17241,499,535
17246,496,535
17253,478,535
17260,461,535
17266,478,535
17273,548,535
17281,648,535
17286,715,535
17293,768,535
17300,690,535
17306,550,535
17313,442,535
17320,411,535
17326,421,535
17333,454,535
17340,471,535
17345,474,535
17353,478,535
17360,482,535
17367,484,535
17373,488,535
17380,491,535
17386,493,535
17393,495,535
17400,499,535
17406,500,535
17413,502,535
17420,504,535
17426,506,536
17433,508,536
17440,511,536
17446,513,536
17454,516,536
17460,519,536
17466,522,536
17473,525,536
17480,527,536
17486,529,536
17494,532,536
17500,533,536
17506,533,536
17513,533,536
17520,531,536
17525,529,536
17533,522,536
17541,515,536
17546,510,536
17553,503,536
17560,498,536
17566,493,536
17573,489,536
17581,486,536
17586,484,536
17593,483,536
17600,484,536
17606,485,536
17613,487,536
17620,490,536
17626,491,536
17633,493,536
17640,495,536
17646,496,536
17653,499,536
17660,502,536
17667,504,536
17673,506,536
17680,502,536
17686,501,536
17693,502,536
17700,504,536
17705,504,536
17713,505,536
17720,506,536
17726,507,536
17733,506,536
17740,506,536
17746,505,536
17754,505,536
17760,506,536
17766,506,536
17773,505,536
17780,504,536
17786,506,536
17794,508,536
17800,510,536
17806,512,536
17813,513,536
17820,520,536
17826,527,536
17833,531,536
17840,531,536
17846,524,536
17853,515,536
17860,507,536
17866,500,536
17873,495,536
17881,494,536
17885,493,536
17893,493,536
17900,493,536
17906,494,536
17912,494,536
17921,496,536
17926,497,536
17933,498,536
17940,499,536
17946,498,536
17953,486,536
17960,464,536
17966,460,536
17973,499,536
17980,597,536
17986,679,536
17993,756,536
18000,739,536
18007,605,536
18013,480,536
18020,422,536
18026,413,536
18033,443,536
18039,465,536
18046,473,536
18053,480,536
18060,480,536
18065,480,536
18073,485,536
18080,487,536
18086,489,536
18093,492,536
18100,496,536
18106,500,536
18113,508,536
18120,511,536
18126,510,536
18134,503,536
18140,497,536
18146,500,536
18153,506,536
18160,513,536
18166,517,536
18173,522,536
18181,527,536
18186,529,536
18193,532,536
18200,533,536
18206,533,536
18213,533,536
18220,533,536
18226,530,536
18233,525,536
18240,519,536
18246,513,537
18253,505,537
18260,498,537
18266,494,537
18273,490,537
18280,487,537
18286,485,537
18293,485,537
18300,484,537
18307,486,537
18313,487,537
18320,489,537
18326,491,537
18333,493,537
18340,493,537
18347,494,537
18353,496,537
18360,499,537
18366,500,537
18373,503,537
18380,507,537
18386,509,537
18394,503,537
18399,501,537
18406,504,537
18413,503,537
18420,501,538
18426,501,538
18434,502,538
18440,504,538
18446,504,538
18453,505,539
18460,506,540
18466,506,540
18473,505,540
18480,505,541
18486,504,541
18493,506,542
18500,509,543
18506,512,543
18513,513,544
18521,511,545
18526,510,545
18533,516,546
18540,527,546
18546,530,547
18553,530,548
18561,524,548
18566,517,549
18573,509,549
18579,501,550
18586,497,550
18593,496,551
18600,496,551
18606,498,551
18613,496,552
18620,492,552
18626,490,553
18633,492,553
18640,496,553
18647,499,554
18653,501,554
18660,501,554
18666,491,554
18673,469,555
18680,462,555
18686,495,555
18693,576,555
18700,674,556
18706,753,556
18713,756,556
18720,616,556
18726,491,556
18734,422,556
18740,415,557
18746,437,557
18753,462,557
18759,469,557
18766,473,557
18774,478,557
18780,482,557
18786,485,557
18793,490,557
18800,493,557
18806,495,557
18813,496,557
18821,499,557
18826,501,557
18833,505,557
18840,508,558
18846,510,557
18853,515,558
18861,515,558
18866,515,558
18873,516,558
18880,517,558
18886,520,558
18893,525,558
18900,529,558
18906,532,558
18913,534,558
18920,535,558
18926,535,558
18933,535,558
18939,532,558
18947,526,558
18953,522,558
18960,514,558
18966,503,558
18973,495,558
18980,491,558
18987,488,558
18993,487,558
19000,486,558
19006,486,559
19013,487,559
19020,486,559
19026,487,559
19034,491,559
19040,494,559
19046,492,559
19053,492,559
19060,496,559
19066,497,559
19074,497,559
19080,497,559
19086,495,558
19092,497,558
19100,500,558
19106,502,558
19113,506,558
19119,507,558
19126,506,558
19133,504,557
19140,505,557
19146,506,557
19153,505,557
19161,504,557
19166,505,557
19173,506,557
19180,506,557
19186,505,557
19193,507,556
19201,507,556
19206,508,556
19213,506,556
19220,504,556
19226,505,556
19233,505,556
19240,506,556
19247,507,556
19253,508,556
19260,511,556
19266,516,556
19273,516,556
19280,519,556
19287,525,556
19293,533,556
19299,536,556
19306,533,556
19313,524,556
19320,513,556
19326,505,556
19333,497,556
19340,497,556
19346,495,556
19353,498,556
19360,498,556
19366,492,556
19374,494,556
19380,495,556
19386,494,556
19393,496,556
19400,498,556
19406,501,556
19414,498,556
19420,478,556
19426,459,556
19433,472,556
19440,551,556
19446,640,556
19453,736,556
19460,773,556
19466,706,556
19473,545,556
19479,446,556
19486,412,556
19493,429,556
19501,459,556
19506,468,556
19513,476,556
19520,479,556
19526,480,556
19533,484,556
19540,490,556
19546,492,556
19553,495,556
19560,498,556
19566,502,556
19573,504,556
19580,503,556
19587,504,556
19593,506,556
19600,507,556
19606,511,556
19613,514,556
19620,518,556
19627,522,556
19633,523,556
19640,526,556
19646,531,556
19653,535,556
19659,535,556
19666,533,556
19674,534,556
19680,535,556
19686,534,556
19693,530,556
19700,524,556
19706,517,556
19714,510,556
19720,504,556
19726,499,556
19733,492,556
19740,488,556
19746,485,556
19753,485,556
19760,485,556
19766,484,556
19773,486,556
19780,488,556
19786,492,556
19793,494,556
19801,493,556
19806,493,556
19812,493,556
19820,496,556
19826,498,556
19833,500,556
19840,502,556
19846,503,556
19853,504,556
19860,506,556
19866,507,556
19873,508,556
19880,508,556
19887,505,556
19893,504,556
19900,504,556
19906,505,556
19913,505,556
19920,505,555
19927,506,555
19933,505,555
19940,505,555
19946,505,555
19953,508,555
19960,504,555
19966,501,555
19973,502,555
19980,504,555
19986,505,555
19993,508,555
20000,508,555
20006,507,555
20014,511,555
20019,512,555
20026,512,555
20033,514,555
20040,515,555
20046,519,555
20054,527,555
20060,531,555
20066,532,555
20073,527,555
20080,517,555
20086,510,555
20093,503,555
20100,501,555
20106,498,555
20113,496,555
20120,496,555
20126,495,556
20133,494,555
20141,496,555
20146,497,556
20153,499,555
20160,500,556
20166,501,556
20173,498,556
20180,482,556
20186,463,555
20193,466,556
20199,522,556
20206,609,556
20213,703,556
20220,770,556
20226,726,556
20233,587,556
20240,459,556
20246,415,556
20253,420,556
20260,453,556
20267,469,556
20273,474,556
20280,478,556
20286,481,556
20293,485,556
20300,489,556
20306,492,556
20314,492,556
20320,493,556
20326,496,555
20333,501,555
20340,503,556
20346,503,555
20354,504,555
20360,507,555
20366,511,555
20373,513,555
20379,515,556
20386,518,555
20393,522,556
20400,525,556
20406,527,555
20413,530,556
20420,532,555
20426,534,555
20433,536,555
20441,534,555
20446,533,555
20453,531,555
20460,524,555
20466,517,555
20473,511,555
20481,501,555
20486,497,555
20493,491,555
20500,487,555
20506,485,555
20513,483,555
20520,483,555
20527,483,555
20533,484,555
20540,485,555
20546,485,555
20553,329,554
20559,353,554
20567,407,554
20573,449,554
20580,481,554
20586,495,554
20593,509,554
20600,518,555
20606,523,555
20613,526,555
20620,528,555
20626,528,555
20633,530,555
20640,530,555
20646,529,555
20654,528,555
20660,527,555
20666,526,555
20673,524,555
20680,523,555
20686,521,555
20694,521,555
20700,520,555
20706,519,555
20712,518,555
20720,517,555
20726,517,555
20733,516,555
20739,515,555
20746,514,555
20753,513,555
20760,513,555
20766,513,555
20773,513,555
20781,513,555
20786,515,555
20793,520,555
20800,520,555
20806,520,555
20813,526,555
20820,532,555
20826,535,555
20833,536,555
20840,527,555
20846,520,555
20853,512,555
20860,504,555
20867,499,555
20873,499,555
20880,500,555
20886,501,555
20893,497,555
20900,495,555
20907,496,555
20913,498,555
20919,499,555
20926,499,555
20933,500,555
20940,498,555
20946,487,555
20954,466,555
20960,472,555
20966,527,555
20973,610,555
20980,697,555
20986,758,555
20994,710,555
21000,593,555
21006,481,555
21013,422,555
21020,420,555
21026,442,555
21033,466,555
21040,473,555
21046,478,555
21053,482,555
21060,486,555
21066,489,555
21073,496,555
21081,498,555
21086,497,555
21093,497,555
21099,498,555
21106,501,555
21113,505,555
21121,509,555
21126,511,555
21133,513,555
21140,515,555
21146,519,555
21153,521,555
21160,522,555
21167,521,555
21173,527,555
21180,532,555
21186,534,555
21193,536,555
21200,536,555
21207,536,555
21213,535,555
21220,531,555
21226,526,555
21233,520,555
21240,513,555
21246,506,555
21252,502,555
21260,495,555
21266,491,555
21273,488,555
21279,485,555
21286,482,555
21294,482,555
21300,484,555
21306,485,555
21313,489,555
21320,491,555
21326,493,555
21334,494,555
21340,495,555
21346,497,555
21353,500,555
21360,499,555
21366,498,555
21373,499,555
21381,502,555
21386,503,555
21393,505,555
21400,507,555
21406,507,555
21413,507,555
21421,509,555
21426,508,555
21432,510,555
21440,508,555
21446,504,555
21453,505,555
21459,505,555
21466,504,555
21473,505,555
21480,505,555
21486,506,555
21493,506,555
21500,505,555
21507,506,555
21513,506,555
21520,506,555
21526,505,555
21533,506,555
21540,509,555
21547,514,555
21553,518,555
21560,517,555
21566,521,555
21573,528,555
21580,531,555
21586,533,555
21594,527,555
21600,517,555
21606,510,555
21612,504,555
21620,500,555
21626,497,555
21634,495,555
21639,493,555
21646,494,555
21653,496,555
21660,497,555
21666,495,555
21673,496,555
21680,498,555
21686,498,555
21693,498,555
21700,487,555
21706,466,555
21713,462,555
21721,504,555
21726,579,555
21733,684,555
21740,774,556
21746,768,556
21753,623,556
21761,474,555
21766,423,555
21773,417,555
21780,448,555
21786,465,555
21793,472,555
21800,474,555
21807,477,555
21813,481,555
21819,483,555
21826,486,555
21833,490,555
21840,492,555
21847,495,555
21853,496,555
21860,498,555
21866,501,555
21873,504,555
21880,506,555
21886,509,555
21893,510,555
21900,513,555
21906,516,555
21913,520,555
21920,522,555
21926,524,555
21934,528,556
21940,530,556
21946,532,556
21953,533,556
21960,533,555
21966,533,556
21972,530,556
21980,524,556
21986,521,556
21993,514,556
22000,506,556
22006,500,556
22013,494,556
22021,488,556
22026,487,556
22033,486,556
22040,483,556
22046,485,556
22053,484,556
22061,484,555
22066,487,556
22073,489,556
22080,490,556
22086,492,556
22093,495,556
22100,497,555
22106,498,555
22113,500,556
22120,499,555
22126,502,556
22133,505,556
22140,503,555
22147,504,556
22152,505,556
22160,502,555
22166,505,555
22173,506,555
22179,505,555
22187,506,555
22193,507,555
22200,506,555
22206,508,555
22213,507,555
22220,504,555
22226,506,555
22234,506,555
22240,504,555
22246,506,555
22253,507,555
22260,509,555
22266,513,555
22274,517,555
22280,516,555
22286,520,555
22293,526,555
22300,528,555
22306,531,555
22313,526,555
22320,516,555
22326,510,555
22332,503,555
22340,496,555
22346,495,555
22353,493,555
22360,493,555
22366,496,555
22373,495,555
22380,496,555
22386,498,555
22393,499,555
22401,498,555
22406,500,555
22413,501,555
22420,488,555
22426,468,555
22433,458,555
22440,497,555
22447,585,555
22453,672,555
22460,764,555
22466,770,555
22473,633,555
22480,479,555
22487,423,555
22493,416,555
22500,444,555
22506,465,555
22512,472,555
22520,476,555
22526,481,555
22533,484,555
22539,483,555
22546,485,555
22553,488,555
22560,488,555
22566,492,555
22574,499,555
22580,501,555
22586,503,555
22593,506,555
22600,515,555
22606,517,555
22614,510,555
22620,508,555
22626,511,555
22633,518,555
22640,522,555
22646,524,555
22653,524,555
22661,529,555
22666,533,555
22673,533,555
22680,532,555
22686,534,555
22693,533,555
22701,528,555
22706,524,555
22713,516,555
22719,508,555
22726,500,555
22733,494,555
22740,488,555
22746,487,555
22753,486,555
22760,482,555
22766,481,555
22773,482,555
22780,484,555
22787,488,556
22793,487,556
22800,490,555
22806,492,556
22813,494,556
22820,496,556
22827,497,556
22833,499,556
22840,501,555
22846,502,556
22853,502,556
22860,502,556
22866,503,556
22874,504,556
22880,505,556
22886,507,556
22893,508,556
22899,506,556
22906,505,556
22914,505,556
22920,506,556
22926,507,556
22933,507,556
22940,507,556
22946,505,556
22953,504,556
22960,508,556
22966,510,556
22973,511,556
22980,512,556
22986,516,556
22993,523,556
23001,528,556
23006,531,556
23013,529,556
23020,519,556
23026,512,556
23033,503,556
23041,497,556
23046,496,556
23052,495,556
23060,494,556
23066,495,556
23073,496,556
23079,495,556
23087,497,556
23093,498,556
23100,499,556
23106,500,556
23113,501,556
23120,496,556
23127,480,556
23133,463,556
23140,469,556
23146,528,556
23153,630,556
23160,713,556
23166,770,556
23173,712,556
23180,552,556
23186,460,556
23193,412,556
23200,428,556
23206,458,556
23214,471,556
23220,477,556
23226,483,556
23232,481,556
23240,480,556
23246,484,556
23254,487,556
23259,490,556
23266,494,556
23273,497,556
23280,500,556
23286,502,556
23293,505,556
23301,507,556
23306,509,556
23313,511,556
23320,514,556
23326,517,556
23333,520,556
23341,521,556
23346,524,556
23353,527,556
23360,530,556
23366,531,556
23373,533,556
23380,535,556
23386,537,556
23393,533,556
23400,525,555
23406,519,555
23412,514,555
23420,506,555
23427,500,555
23433,493,555
23439,488,555
23446,486,555
23453,482,555
23460,481,555
23467,482,555
23473,482,555
23480,484,555
23486,486,555
23493,485,555
23500,486,555
23506,490,555
23514,491,555
23520,494,555
23526,498,555
23533,498,555
23540,499,555
23546,500,555
23554,501,555
23560,502,555
23566,505,555
23573,506,555
23580,504,555
23586,504,555
23592,505,555
23600,508,555
23606,512,555
23613,503,555
23619,497,555
23626,498,555
23633,497,555
23641,501,555
23646,505,555
23653,510,555
23660,512,555
23666,515,555
23673,521,555
23681,527,555
23686,529,555
23693,528,555
23700,518,555
23706,508,555
23713,496,555
23720,489,555
23726,490,555
23733,491,555
23740,493,555
23746,497,555
23753,493,555
23760,500,555
23767,501,555
23773,491,555
23780,490,555
23786,494,555
23793,496,555
23799,492,555
23806,479,555
23813,462,555
23820,475,555
23826,529,555
23833,629,555
23840,720,555
23846,770,556
23854,713,556
23860,575,555
23866,450,556
23873,395,555
23880,409,555
23886,442,556
23894,463,555
23900,471,555
23906,476,556
23913,480,555
23920,484,555
23926,488,556
23933,490,556
23941,493,556
23946,496,556
23952,498,556
23960,501,556
23966,503,556
23973,504,556
23980,506,556
23986,509,556
23993,512,556
24000,514,556
24006,517,556
24013,520,556
24020,523,556
24026,526,556
24033,527,556
24040,530,556
24046,533,556
24053,533,556
24060,534,556
24067,534,556
24073,531,556
24080,526,556
24086,522,556
24093,516,556
24100,509,556
24107,505,556
24113,500,556
24120,494,556
24126,491,556
24132,488,556
24140,487,556
24146,488,556
24154,487,556
24159,488,556
24166,490,556
24173,491,556
24180,493,556
24186,495,556
24194,496,556
24200,499,556
24206,501,556
24213,501,556
24220,502,556
24226,504,556
24233,505,556
24240,506,556
24246,507,556
24253,507,556
24260,507,556
24266,508,556
24273,507,556
24281,507,556
24286,508,556
24293,507,556
24300,510,556
24306,514,556
24313,514,556
24321,514,556
24326,517,556
24333,525,556
24339,530,556
24346,535,556
24353,528,556
24360,518,556
24366,514,556
24373,505,556
24380,498,556
24386,495,556
24393,493,556
24400,492,556
24407,493,556
24413,494,556
24420,496,556
24426,497,556
24433,499,556
24440,500,556
24446,502,556
24453,502,556
24460,499,556
24466,483,556
24473,468,556
24480,488,556
24486,560,556
24494,652,556
24500,714,556
24506,764,556
24513,688,556
24519,550,556
24526,451,556
24534,411,556
24540,421,556
24546,445,556
24553,468,556
24560,476,556
24566,479,556
24573,481,556
24581,485,556
24586,488,556
24593,494,556
24600,499,556
24606,507,556
24613,512,556
24621,508,556
24626,509,556
24633,499,556
24640,493,556
24646,498,556
24653,503,556
24660,510,556
24666,514,556
24673,518,556
24680,521,556
24686,525,556
24693,527,556
24699,530,556
24707,532,556
24713,531,556
24720,531,556
24725,531,556
24733,528,556
24740,524,556
24747,520,556
24753,515,556
24760,509,556
24766,504,556
24773,498,556
24780,495,556
24786,492,556
24794,488,556
24800,490,556
24806,490,556
24813,489,556
24820,491,556
24826,493,556
24834,492,556
24840,494,556
24846,496,556
24853,498,556
24860,500,556
24866,502,556
24873,503,556
24880,506,556
24886,508,557
24893,507,556
24900,509,556
24905,513,557
24913,515,556
24921,515,556
24926,511,557
24933,507,556
24940,505,556
24946,503,556
24953,501,556
24961,506,556
24966,510,557
24973,514,556
24980,514,557
24986,516,557
24993,523,556
25000,530,557
25007,534,557
25013,531,557
25020,521,557
25026,513,557
25033,502,557
25040,497,557
25047,495,557
25053,493,557
25059,493,557
25066,493,557
25073,494,557
25080,496,557
25085,497,557
25093,496,557
25100,497,557
25106,498,557
25113,499,557
25120,497,557
25126,481,557
25134,461,557
25140,468,557
25146,525,557
25153,630,557
25160,730,557
25166,780,557
25174,712,557
25180,563,557
25186,452,557
25193,410,557
25200,423,557
25206,451,557
25213,464,557
25220,470,557
25226,475,557
25233,480,557
25239,483,557
25246,486,557
25253,489,557
25261,493,557
25266,495,557
25273,497,557
25280,500,557
25286,501,557
25293,503,557
25300,505,557
25306,507,557
25313,510,557
25320,513,557
25326,515,557
25333,518,557
25340,520,557
25347,522,557
25353,525,557
25360,529,557
25366,531,557
25373,532,557
25380,532,557
25387,530,557
25393,528,557
25400,526,557
25406,522,557
25413,516,557
25419,510,557
25426,505,557
25434,499,557
25440,493,557
25446,490,557
25453,488,557
25460,486,558
25466,486,558
25474,487,558
25480,487,558
25486,488,558
25493,489,558
25500,491,558
25506,495,558
25513,495,558
25520,493,558
25526,497,558
25533,500,558
25540,505,558
25546,507,558
25553,508,558
25561,508,558
25566,508,558
25572,508,558
25580,510,558
25586,509,558
25593,506,558
25600,505,558
25606,505,558
25613,505,558
25620,509,558
25626,513,558
25633,515,558
25640,514,558
25647,519,558
25653,525,558
25660,531,558
25666,532,558
25673,524,558
25680,514,558
25687,507,558
25693,498,558
25700,493,558
25706,492,558
25713,491,558
25720,491,558
25726,492,558
25733,493,558
25740,495,558
25746,495,558
25752,496,558
25760,498,558
25766,498,558
25774,501,558
25779,495,558
25786,475,558
25793,460,558
25800,489,558
25806,557,558
25814,663,558
25820,750,558
25826,780,558
25833,680,558
25840,513,558
25846,430,558
25853,410,558
25860,431,558
25866,459,558
25873,469,558
25880,473,558
25886,475,558
25893,480,558
25901,483,558
25906,485,558
25913,488,558
25920,490,558
25926,492,558
25933,497,558
25940,499,558
25946,502,558
25953,504,558
25959,505,558
25966,506,558
25973,510,558
25980,513,558
25987,516,558
25993,518,558
26000,520,558
26006,524,558
26013,526,558
26020,528,558
26027,529,558
26033,531,558
26040,531,558
26046,530,558
26053,528,558
26060,525,558
26066,520,558
26074,512,558
26080,506,558
26086,501,558
26093,496,558
26100,491,558
26106,489,558
26113,487,558
26120,487,558
26126,487,558
26133,488,558
26139,490,558
26146,492,558
26153,491,558
26160,493,558
26166,494,558
26173,496,558
26180,499,558
26186,500,558
26193,501,558
26201,503,558
26206,504,558
26213,505,558
26220,505,558
26226,506,558
26233,507,558
26241,506,558
26246,506,558
26253,506,558
26260,505,558
26266,505,558
26273,505,558
26280,506,558
26287,509,558
26293,512,558
26300,513,558
26306,512,558
26313,518,558
26319,526,558
26327,531,558
26333,533,558
26340,524,558
26346,515,558
26353,506,558
26360,499,558
26366,495,558
26373,494,558
26380,493,558
26386,493,558
26393,494,558
26400,494,558
26406,494,558
26414,495,558
26420,497,558
26426,498,558
26433,499,558
26440,501,558
26446,492,558
26454,472,558
26460,459,558
26466,481,558
26472,557,558
26480,659,558
26486,743,558
26493,767,558
26499,675,558
26506,533,558
26513,431,558
26520,410,558
26526,430,558
26533,460,558
26541,472,558
26546,474,558
26553,476,558
26560,480,558
26566,484,558
26573,487,558
26580,491,558
26586,493,558
26593,497,558
26600,498,558
26606,498,558
26613,501,558
26620,504,558
26627,506,558
26633,508,558
26640,512,558
26646,514,558
26653,515,558
26660,518,558
26667,522,558
26673,525,558
26679,526,558
26686,528,558
26693,530,558
26700,530,558
26706,530,558
26714,529,559
26720,529,559
26726,524,558
26733,518,558
26740,512,558
26746,507,559
26754,500,559
26760,496,558
26766,493,558
26773,489,559
26780,487,558
26786,486,559
26793,487,559
26800,487,559
26806,488,559
26813,489,559
26820,490,559
26826,492,559
26833,495,558
26841,497,559
26846,498,558
26853,500,559
26859,501,558
26866,502,559
26873,504,559
26881,505,559
26886,506,559
26893,506,559
26900,506,559
26906,508,559
26913,506,559
26920,507,559
26927,507,558
26933,507,559
26940,506,559
26946,505,559
26953,506,559
26960,507,559
26967,507,559
26973,507,559
26980,510,559
26986,514,559
26993,513,559
27000,515,559
27006,522,559
27013,527,558
27020,531,559
27026,532,559
27033,523,559
27039,515,559
27046,506,559
27054,497,559
27060,494,559
27066,493,559
27073,492,559
27080,493,559
27086,494,559
27094,495,559
27100,496,559
27106,498,559
27113,498,559
27120,500,559
27126,501,559
27133,500,559
27141,485,559
27146,471,559
27153,462,559
27160,513,559
27166,599,559
27173,681,559
27181,765,559
27186,751,559
27192,623,559
27200,479,559
27206,421,559
27213,421,559
27219,449,559
27226,465,559
27233,475,559
27240,479,559
27246,481,559
27253,483,559
27260,486,559
27267,488,559
27273,491,559
27280,497,559
27286,499,559
27293,500,559
27300,501,559
27307,503,559
27313,508,559
27320,510,559
27326,511,559
27333,513,559
27340,516,559
27346,518,559
27354,521,559
27360,525,559
27366,527,559
27372,526,559
27380,531,559
27386,531,559
27394,532,559
27399,532,559
27406,532,559
27413,528,559
27420,523,559
27426,518,559
27433,512,559
27440,507,559
27446,501,559
27453,494,559
27460,492,559
27466,489,559
27473,487,559
27481,487,559
27486,485,559
27493,486,559
27500,487,559
27506,488,559
27513,492,559
27521,495,559
27526,496,559
27533,497,559
27540,499,559
27546,501,559
27552,502,559
27560,503,559
27567,505,559
27573,504,559
27580,505,559
27586,507,559
27593,504,559
27600,505,559
27607,505,559
27613,505,559
27620,506,559
27626,506,559
27633,506,559
27640,505,559
27646,504,559
27653,505,559
27660,505,559
27666,506,559
27673,510,559
27679,515,559
27686,516,559
27694,514,559
27700,520,559
27706,527,559
27713,532,559
27720,530,560
27726,522,559
27734,514,559
27740,508,560
27746,500,560
27753,495,560
27760,493,560
27766,491,560
27773,492,560
27781,496,560
27786,496,560
27793,496,560
27800,496,560
27806,498,560
27813,499,560
27821,500,560
27826,499,560
27832,491,560
27840,468,560
27846,461,560
27853,507,560
27860,595,560
27866,665,560
27873,756,560
27880,741,560
27886,629,560
27893,482,560
27900,418,560
27907,417,560
27913,442,560
27920,468,560
27926,475,560
27933,478,560
27940,480,560
27947,483,560
27953,487,560
27959,490,560
27966,493,560
27973,496,560
27980,496,560
27986,498,560
27994,504,560
28000,505,560
28006,506,560
28013,509,560
28020,512,560
28026,512,560
28034,514,560
28040,517,560
28046,519,560
28053,525,560
28060,528,560
28066,529,560
28073,531,560
28080,531,560
28086,533,560
28093,532,560
28100,530,560
28106,528,560
28112,523,560
28121,517,560
28126,514,560
28133,507,560
28140,500,560
28146,497,560
28153,492,560
28161,488,560
28166,485,560
28173,483,560
28180,485,560
28186,486,560
28193,487,560
28200,489,560
28207,492,560
28213,492,560
28220,495,560
28226,496,560
28233,496,560
28239,500,560
28247,502,560
28253,503,560
28260,503,560
28265,504,560
28273,505,560
28280,506,560
28286,506,560
28293,507,560
28300,506,560
28306,504,560
28313,507,560
28320,508,560
28326,507,560
28334,506,560
28340,506,560
28346,507,560
28353,508,560
28360,513,560
28366,516,560
28374,514,560
28380,514,560
28386,524,560
28392,530,560
28400,532,560
28406,526,560
28413,517,560
28420,512,560
28426,504,560
28433,499,560
28440,496,560
28446,494,560
28453,496,560
28461,497,560
28466,498,560
28473,499,560
28480,498,560
28486,498,560
28493,499,560
28500,500,560
28506,500,560
28513,495,560
28519,478,560
28526,462,560
28533,481,560
28540,567,560
28547,641,560
28553,722,560
28560,764,560
28566,670,560
28573,538,560
28580,438,560
28587,413,561
28593,431,560
28600,459,561
28606,471,560
28613,477,560
28620,481,561
28626,485,561
28634,488,561
28640,492,560
28646,494,561
28653,495,561
28660,500,561
28666,503,561
28673,505,561
28680,507,561
28686,507,561
28693,509,561
28700,512,561
28706,514,561
28713,517,561
28720,521,561
28726,522,561
28733,524,561
28740,529,561
28746,531,561
28753,532,561
28761,535,561
28766,535,561
28773,537,561
28780,536,561
28786,534,561
28793,528,561
28800,520,561
28806,513,561
28813,506,561
28820,500,561
28826,496,561
28833,491,561
28840,487,561
28847,484,561
28853,484,561
28860,485,561
28866,485,561
28873,486,561
28880,487,561
28887,489,561
28893,490,561
28900,492,561
28906,494,561
28913,495,561
28920,496,561
28926,498,561
28933,501,561
28940,502,561
28946,502,561
28952,503,561
28960,504,561
28966,504,561
28974,504,561
28980,505,561
28986,506,561
28993,505,561
29000,502,561
29006,501,561
29014,501,561
29020,502,561
29026,502,561
29033,505,561
29040,509,561
29046,511,561
29053,510,561
29060,513,561
29066,522,561
29073,529,562
29079,529,562
29086,520,562
29093,510,562
29101,502,562
29106,497,562
29113,493,562
29120,490,562
29126,490,562
29133,490,562
29140,491,562
29146,491,562
29153,492,562
29160,492,562
29166,494,562
29173,496,562
29180,496,562
29187,496,562
29193,488,562
29200,466,562
29206,458,562
29213,492,562
29220,586,562
29227,666,562
29232,729,562
29240,744,562
29246,627,562
29253,484,562
29260,420,562
29266,407,562
29274,436,562
29280,460,562
29286,468,562
29293,473,562
29300,477,562
29306,480,562
29314,484,562
29320,486,562
29326,489,562
29333,492,562
29340,492,562
29346,497,562
29353,502,562
29359,503,562
29366,505,562
29373,507,562
29380,509,562
29385,507,562
29393,512,562
29401,517,562
29406,525,562
29413,526,562
29420,527,562
29426,530,562
29433,532,562
29441,534,562
29446,535,562
29453,533,562
29460,533,562
29466,529,562
29473,523,562
29480,516,562
29487,511,562
29493,506,562
29500,499,562
29506,495,562
29512,489,562
29520,486,562
29527,483,562
29533,484,562
29540,485,563
29546,485,562
29553,486,562
29560,489,562
29566,491,563
29573,493,562
29580,494,562
29586,494,563
29593,495,563
29600,498,562
29606,500,562
29614,502,562
29620,504,562
29626,506,562
29633,503,562
29639,504,562
29646,508,562
29654,506,563
29660,509,563
29665,509,563
29673,507,562
29680,507,563
29686,507,563
29693,506,563
29701,506,563
29706,506,563
29713,508,563
29720,512,563
29726,512,563
29733,513,563
29741,520,563
29746,528,563
29753,535,563
29760,532,563
29766,523,563
29773,515,563
29780,506,563
29786,500,563
29792,497,563
29800,496,563
29806,494,563
29813,494,563
29820,494,563
29827,495,563
29833,496,563
29840,498,563
29846,499,563
29853,500,563
29860,502,563
29867,501,563
29873,492,563
29880,468,563
29886,458,563
29893,502,563
29900,591,563
29906,677,563
29914,765,563
29919,758,563
29926,633,563
29933,484,563
29940,416,563
29946,413,563
29954,448,563
29960,466,563
29966,474,563
29973,477,563
29980,480,563
29986,483,563
29993,487,563
30000,490,563
30006,491,563
30013,494,563
30020,495,563
30026,498,563
30033,503,563
30041,505,563
30046,505,563
30053,506,563
30060,511,563
30066,514,563
30072,517,563
30081,519,563
30086,521,563
30093,524,563
30100,527,563
30106,530,563
30113,532,563
30120,534,563
30126,535,563
30133,534,563
30140,531,563
30146,526,563
30153,522,563
30160,517,563
30167,509,563
30173,501,563
30180,496,563
30186,493,563
30193,488,563
30199,485,563
30206,485,563
30213,485,563
30220,486,564
30225,486,563
30233,486,564
30240,489,563
30246,492,563
30254,492,564
30260,493,564
30266,495,564
30273,498,564
30280,501,563
30286,501,564
30294,500,564
30300,505,564
30306,507,564
30313,507,564
30320,505,564
30326,506,564
30333,507,564
30341,507,564
30346,507,564
30352,508,564
30360,508,564
30366,507,564
30373,508,564
30381,507,564
30386,506,564
30393,511,564
30400,511,564
30406,513,564
30413,516,564
30420,520,564
30426,526,564
30433,531,564
30440,532,564
30446,522,564
30453,515,564
30460,508,564
30467,500,564
30473,498,564
30479,496,564
30486,495,564
30493,495,564
30500,497,564
30507,496,564
30513,496,564
30520,496,564
30526,498,564
30533,500,564
30540,501,564
30546,501,564
30554,489,564
30560,471,564
30566,458,564
30573,493,564
30580,588,564
30586,660,564
30594,754,564
30600,754,564
30606,635,564
30613,504,564
30620,425,564
30626,415,564
30632,442,564
30640,465,564
30646,472,564
30653,479,564
30660,481,564
30666,482,564
30673,485,564
30681,491,564
30686,493,564
30693,496,564
30700,498,564
30706,500,564
30713,502,564
30721,504,564
30726,506,564
30733,509,564
30740,510,564
30746,512,564
30753,516,564
30759,518,564
30767,522,564
30773,525,564
30780,528,564
30786,530,564
30793,533,564
30800,532,565
30807,534,565
30813,536,565
30820,534,565
30826,530,564
30833,526,565
30840,520,565
30846,512,565
30853,507,565
30860,499,565
30866,495,565
30873,490,565
30880,487,565
30886,486,565
30894,486,565
30900,487,565
30906,487,565
30912,488,565
30920,491,565
30926,491,565
30934,493,565
30940,495,565
30946,496,565
30953,498,565
30960,500,565
30966,501,565
30973,503,565
30981,505,565
30986,505,565
30993,505,565
31000,506,565
31006,506,565
31013,507,565
31021,507,565
31026,506,565
31033,505,565
31039,507,565
31046,507,565
31053,505,565
31060,506,565
31066,507,565
31073,507,565
31080,509,565
31086,512,565
31093,514,565
31100,513,565
31107,517,565
31113,525,565
31120,529,565
31126,531,565
31133,528,565
31140,518,565
31147,513,565
31153,506,565
31160,499,565
31166,496,565
31173,495,565
31180,493,565
31186,494,565
31193,497,565
31200,498,565
31206,498,565
31213,499,565
31220,499,565
31226,500,565
31234,501,565
31240,497,565
31246,483,565
31253,463,565
31260,477,565
31266,543,565
31273,630,565
31280,713,565
31286,766,565
31293,678,565
31300,543,565
31306,449,565
31313,411,565
31320,428,565
31326,454,565
31333,472,565
31340,478,565
31345,481,565
31353,484,565
31361,488,565
31366,489,565
31373,492,565
31380,495,565
31386,497,565
31393,501,565
31400,503,565
31407,505,565
31413,507,565
31420,507,565
31426,509,565
31433,513,565
31440,516,565
31447,518,565
31453,520,565
31460,524,565
31466,527,565
31472,529,565
31480,533,565
31486,534,565
31493,534,565
31500,535,565
31506,534,565
31513,531,565
31520,526,565
31526,522,565
31534,515,565
31540,507,565
31546,501,565
31553,495,565
31560,488,565
31566,485,565
31574,485,565
31580,484,565
31586,483,565
31593,484,565
31599,483,565
31606,484,565
31613,487,565
31621,490,565
31625,492,565
31633,494,565
31640,496,565
31646,496,565
31653,498,566
31661,499,565
31666,500,565
31673,503,566
31680,503,565
31686,503,565
31693,503,566
31700,505,566
31706,505,566
31713,505,565
31720,505,565
31726,506,566
31733,505,566
31740,504,566
31747,505,566
31752,505,566
31760,504,566
31766,505,566
31773,509,566
31779,512,566
31787,511,566
31793,513,566
31800,523,566
31806,528,566
31813,531,566
31820,527,566
31826,518,566
31834,510,566
31840,502,566
31846,498,566
31853,495,566
31860,493,566
31866,491,566
31874,492,566
31880,494,566
31886,494,566
31893,495,566
31900,496,566
31906,498,566
31913,499,566
31920,499,566
31926,495,566
31932,481,566
31940,464,566
31946,471,566
31953,542,566
31961,626,566
31966,690,566
31973,756,566
31980,687,566
31986,571,566
31993,455,566
32001,415,566
32006,420,566
32013,449,566
32020,469,566
32026,474,566
32032,478,566
32040,481,566
32047,485,566
32053,489,566
32059,492,566
32066,495,566
32073,498,566
32080,499,566
32087,502,566
32093,505,566
32100,509,566
32106,511,566
32113,511,566
32120,511,566
32126,514,566
32133,518,566
32140,521,566
32146,523,566
32153,525,566
32160,528,566
32166,530,566
32174,534,566
32180,534,566
32186,535,566
32193,534,566
32200,531,566
32206,527,566
32212,522,566
32220,516,566
32226,510,566
32233,502,566
32240,497,566
32246,492,566
32253,488,566
32261,485,566
32266,485,566
32273,485,566
32280,486,566
32286,487,566
32293,490,566
32301,491,566
32306,492,566
32313,493,566
32320,495,566
32326,498,566
32333,499,566
32339,500,566
32346,502,566
32353,505,566
32360,506,566
32366,507,566
32373,505,566
32380,505,566
32387,506,566
32393,507,566
32400,508,566
32406,507,566
32413,507,566
32420,506,566
32427,508,566
32433,508,566
32440,508,566
32446,507,566
32453,506,566
32460,508,566
32466,510,566
32474,515,566
32480,516,566
32486,514,566
32492,518,566
32500,526,566
32506,532,566
32514,532,566
32520,525,566
32526,515,566
32533,507,566
32540,500,566
32546,496,566
32553,497,566
32560,495,566
32566,494,566
32573,495,566
32580,496,566
32586,498,566
32593,499,566
32601,498,566
32606,498,566
32613,499,566
32619,498,566
32626,493,566
32633,470,566
32641,462,566
32646,484,566
32653,575,566
32660,671,566
32666,747,566
32673,752,566
32680,613,566
32687,490,566
32693,427,566
32700,411,566
32706,434,566
32713,464,566
32720,474,566
32727,477,566
32733,481,566
32740,484,566
32746,488,566
32753,490,566
32760,493,566
32766,495,567
32772,499,566
32780,501,567
32786,503,566
32793,506,567
32800,508,567
32806,512,567
32814,513,567
32820,514,567
32826,517,566
32833,518,566
32840,519,566
32846,523,566
32854,526,566
32860,529,566
32866,533,566
32873,534,566
32880,534,566
32886,535,566
32893,533,566
32899,530,566
32906,526,566
32913,519,566
32920,512,566
32925,507,566
32933,499,566
32941,493,566
32946,490,566
32953,487,566
32960,485,566
32966,484,566
32973,484,566
32980,485,566
32986,486,566
32993,489,566
33000,491,566
33006,493,566
33013,494,566
33020,494,566
33027,497,566
33033,499,566
33040,500,566
33046,501,566
33052,504,566
33060,504,566
33067,504,566
33073,505,566
33079,506,566
33086,506,566
33093,505,566
33100,506,566
33106,506,566
33114,507,566
33120,506,566
33126,505,566
33133,506,566
33140,505,566
33146,504,566
33154,504,566
33160,505,566
33166,506,566
33173,511,566
33180,513,566
33186,513,566
33193,516,566
33200,522,566
33205,528,566
33213,531,566
33220,527,566
33226,519,566
33232,512,566
33241,503,566
33246,498,566
33253,496,566
33260,496,566
33266,495,566
33273,494,566
33281,495,566
33286,497,566
33293,497,567
33300,497,567
33306,498,566
33313,497,567
33320,499,567
33327,498,567
33333,482,567
33340,461,567
33346,466,567
33353,531,567
33359,617,567
33367,698,567
33373,761,567
33380,704,567
33386,588,567
33393,460,567
33400,414,567
33406,424,567
33413,449,567
33420,469,567
33426,475,567
33433,478,567
33440,481,567
33446,485,567
33454,488,567
33460,490,567
33466,493,567
33473,496,567
33480,499,567
33486,502,567
33494,504,567
33500,506,567
33506,508,567
33512,511,567
33520,512,567
33526,513,567
33533,516,567
33540,518,567
33546,521,567
33553,525,567
33560,528,567
33566,530,567
33573,533,567
33581,535,567
33586,536,567
33593,535,567
33600,531,567
33606,528,567
33612,522,567
33620,515,567
33626,511,567
33633,503,567
33639,497,567
33646,492,567
33653,488,567
33660,485,567
33667,483,567
33673,484,567
33680,484,567
33686,484,567
33693,486,567
33700,489,567
33707,491,567
33713,494,567
33720,495,567
33726,495,567
33733,495,567
33740,499,567
33746,501,567
33754,500,568
33760,501,567
33766,503,567
33773,506,568
33780,504,568
33786,504,568
33793,504,568
33800,505,568
33806,505,568
33813,506,568
33820,505,568
33826,506,568
33833,507,568
33840,506,568
33846,506,568
33853,506,568
33860,503,568
33866,503,568
33873,504,568
33881,506,568
33886,507,568
33893,509,568
33900,513,568
33906,514,568
33913,514,568
33920,521,568
33926,526,568
33933,531,568
33940,532,568
33946,525,568
33953,514,568
33960,506,568
33967,499,568
33973,496,568
33980,496,568
33986,495,568
33993,496,568
34000,495,568
34007,496,568
34013,497,568
34020,498,568
34026,499,568
34033,500,568
34040,500,568
34046,499,568
34053,490,568
34060,466,568
34066,460,568
34072,498,568
34080,595,568
34086,677,568
34094,759,568
34100,749,568
34106,629,568
34113,487,568
34120,422,568
34126,416,568
34134,445,568
34140,465,568
34146,473,568
34153,479,568
34160,481,568
34166,483,568
34173,488,568
34180,490,568
34186,493,568
34193,496,568
34199,498,568
34206,500,568
34213,503,568
34221,507,568
34225,509,568
34233,510,568
34240,512,568
34246,513,568
34253,515,568
34260,519,568
34266,521,568
34273,525,568
34280,528,568
34286,531,568
34293,533,568
34300,535,568
34307,537,568
34313,537,568
34320,533,568
34326,530,568
34333,525,568
34340,519,568
34347,512,568
34353,506,568
34360,498,568
34366,491,568
34373,487,568
34379,485,568
34386,483,568
34394,483,568
34400,484,568
34406,486,568
34413,488,568
34420,490,569
34426,490,569
34434,490,569
34440,492,568
34446,493,569
34453,497,569
34460,499,569
34466,499,569
34473,501,569
34480,501,569
34486,502,569
34493,503,568
34500,505,569
34506,506,569
34513,505,569
34521,506,569
34526,508,569
34532,509,569
34540,506,569
34546,504,569
34553,504,569
34561,504,568
34566,504,569
34573,503,569
34580,505,569
34586,505,569
34593,505,569
34600,506,569
34607,507,569
34613,508,569
34620,508,569
34626,509,569
34633,513,569
34640,514,569
34647,516,569
34653,522,569
34659,529,569
34666,531,569
34673,529,569
34680,520,569
34686,514,569
34693,506,569
34700,498,569
34706,496,569
34713,495,569
34720,496,569
34726,497,569
34734,496,569
34740,497,569
34746,499,569
34753,499,569
34760,499,569
34766,500,569
34774,503,569
34780,498,569
34786,480,569
34793,460,569
34800,470,569
34806,531,569
34812,618,569
34821,713,569
34826,764,569
34833,708,569
34840,570,569
34846,462,569
34853,414,569
34861,426,569
34866,447,569
34873,470,569
34880,476,569
34886,479,569
34893,482,569
34900,485,569
34906,487,569
34913,493,569
34920,496,569
34926,495,569
34933,497,569
34939,501,569
34947,502,569
34953,503,569
34960,507,569
34966,509,569
34973,511,569
34980,514,569
34987,518,569
34993,520,569
35000,523,569
35006,528,569
35013,530,569
35020,530,569
35026,532,569
35034,535,569
35040,535,569
35046,535,569
35053,534,569
35060,530,569
35066,524,569
35074,516,569
35080,508,569
35086,502,569
35092,497,569
35100,492,569
35106,488,569
35113,485,569
35120,484,569
35126,483,569
35133,483,569
35140,484,569
35146,487,569
35153,487,569
35161,489,569
35166,492,569
35173,493,569
35180,494,569
35186,496,569
35193,498,569
35201,500,569
35206,501,569
35213,503,569
35219,504,569
35226,505,570
35233,504,569
35240,504,569
35246,506,569
35253,507,569
35260,507,570
35266,507,569
35273,506,570
35280,505,570
35287,505,570
35293,505,569
35300,505,570
35306,506,570
35313,506,570
35320,507,570
35326,509,570
35333,507,570
35340,504,570
35346,505,570
35353,509,570
35360,512,570
35366,514,570
35373,514,570
35380,515,570
35386,521,570
35393,528,570
35400,533,570
35406,532,570
35414,522,570
35420,514,570
35426,510,570
35433,502,570
35440,498,570
35446,495,570
35453,493,570
35461,494,570
35466,496,570
35473,496,570
35480,497,570
35486,499,570
35493,499,570
35500,500,570
35506,502,570
35513,500,570
35520,486,570
35526,469,570
35533,462,570
35540,509,570
35546,581,570
35553,663,570
35560,750,570
35566,749,570
35573,607,570
35580,488,570
35587,427,570
35593,414,570
35600,442,570
35606,462,570
35613,473,570
35620,477,570
35627,481,570
35633,484,570
35640,488,570
35646,489,570
35652,492,570
35660,496,570
35666,498,570
35674,501,570
35680,502,570
35686,503,570
35693,505,570
35700,508,570
35706,510,570
35714,515,570
35720,518,570
35726,516,570
35733,519,570
35740,523,570
35746,527,570
35753,531,570
35760,534,570
35766,536,570
35773,537,570
35779,535,570
35786,534,570
35793,534,570
35801,528,570
35805,522,570
35813,511,570
35820,504,570
35826,499,570
35833,494,570
35841,488,570
35846,485,570
35853,483,570
35860,482,570
35866,483,570
35873,485,570
35880,486,570
35886,486,570
35893,488,570
35900,489,570
35906,491,570
35913,493,570
35920,496,570
35927,497,570
35932,497,570
35940,502,570
35946,502,570
35953,501,570
35959,502,570
35966,504,570
35973,505,570
35980,505,570
35986,506,570
35993,505,570
36000,506,570
36006,505,570
36014,506,570
36020,506,570
36026,507,570
36033,508,570
36040,509,570
36046,506,571
36054,505,570
36060,503,570
36066,503,571
36073,503,571
36080,504,571
36086,505,570
36093,508,571
36101,512,571
36106,514,571
36112,514,571
36120,518,571
36126,525,571
36133,533,571
36141,536,571
36146,530,571
36153,518,571
36160,509,571
36166,505,571
36173,499,571
36180,498,571
36186,496,571
36193,496,571
36200,496,571
36206,496,571
36213,497,571
36220,502,571
36227,503,571
36233,500,571
36239,497,571
36246,498,571
36253,496,571
36260,477,571
36267,461,571
36273,469,571
36280,540,571
36286,625,571
36293,707,571
36300,768,571
36306,698,571
36314,541,571
36320,458,571
36326,417,571
36333,424,571
36340,455,571
36346,471,571
36354,479,571
36360,480,571
36366,482,571
36373,486,571
36380,487,571
36386,490,571
36392,493,571
36400,497,571
36406,500,571
36413,502,571
36420,504,571
36426,506,571
36433,508,571
36441,512,571
36446,513,571
36453,515,571
36460,518,571
36466,521,571
36473,521,571
36481,524,571
36486,527,571
36493,532,571
36500,536,571
36506,539,571
36513,539,571
36519,536,571
36527,534,571
36533,530,571
36540,524,571
36546,518,571
36553,508,571
36560,502,571
36567,496,571
36573,491,571
36580,489,571
36586,488,571
36593,484,571
36600,480,571
36606,482,571
36613,485,571
36620,487,571
36626,488,571
36633,489,571
36640,491,571
36646,492,571
36654,493,571
36660,495,571
36666,497,571
36672,499,571
36680,503,571
36686,505,571
36694,503,571
36700,502,571
36706,504,571
36713,506,571
36720,505,571
36726,504,571
36733,506,571
36741,507,571
36746,507,571
36753,507,571
36760,507,571
36766,509,571
36773,507,571
36781,504,571
36786,504,571
36793,505,571
36799,507,571
36806,507,571
36813,505,571
36820,508,571
36826,511,571
36833,514,571
36840,515,571
36846,520,571
36853,524,571
36860,527,571
36867,532,571
36873,532,571
36880,523,571
36886,515,571
36893,505,571
36900,499,571
36907,498,571
36913,496,571
36920,495,571
36926,496,572
36933,496,571
36940,498,572
36946,500,572
36954,499,572
36960,499,572
36966,502,572
36973,502,571
36979,499,572
36986,487,572
36994,464,572
37000,466,572
37006,507,572
37013,604,572
37020,696,572
37026,760,572
37033,725,572
37040,594,572
37046,482,572
37053,420,572
37060,419,572
37066,446,572
37073,467,572
37081,476,572
37086,479,572
37093,484,572
37100,487,572
37106,487,572
37113,489,572
37121,493,572
37126,497,572
37132,502,572
37140,503,572
37146,502,572
37153,504,572
37160,506,572
37167,508,572
37173,511,572
37180,515,572
37186,518,572
37193,521,572
37200,524,572
37207,528,572
37213,530,572
37220,532,572
37226,535,572
37233,539,572
37240,539,572
37246,536,572
37253,533,572
37259,529,572
37266,525,572
37273,518,572
37280,510,572
37286,504,572
37294,496,572
37300,490,572
37306,486,572
37313,485,572
37320,484,572
37326,481,572
37334,480,572
37340,482,572
37346,483,572
37353,488,572
37360,491,572
37366,492,572
37373,490,572
37381,492,572
37386,495,572
37393,496,572
37400,497,572
37406,501,572
37412,503,572
37421,502,572
37426,503,572
37433,506,572
37440,507,572
37446,508,572
37453,504,572
37460,503,572
37466,502,572
37473,505,572
37480,506,572
37486,507,572
37493,508,572
37500,506,572
37507,505,572
37513,505,572
37520,506,572
37526,508,572
37533,511,572
37539,514,572
37547,513,572
37553,516,572
37560,525,572
37565,531,572
37573,532,572
37580,524,572
37586,515,572
37594,508,572
37600,502,572
37606,498,572
37613,496,572
37620,495,572
37626,493,572
37634,493,572
37640,495,572
37646,496,572
37653,496,572
37660,498,572
37666,498,572
37673,499,572
37680,502,572
37686,497,572
37692,476,572
37700,458,572
37706,480,572
37713,566,572
37721,650,572
37726,719,572
37733,763,573
37740,650,573
37746,535,573
37753,435,573
37761,412,573
37766,432,573
37773,460,572
37780,474,573
37786,477,572
37793,480,573
37800,484,573
37807,489,573
37813,490,572
37819,492,572
37826,493,572
37833,496,572
37840,500,573
37847,501,573
37853,503,572
37860,505,573
37866,507,573
37873,510,573
37880,515,573
37886,515,573
37893,518,573
37900,521,573
37906,524,573
37913,529,573
37920,532,573
37926,533,573
37934,536,573
37940,537,573
37946,537,573
37953,534,573
37960,531,573
37966,527,573
37972,522,573
37980,515,573
37986,507,573
37993,499,573
38000,493,573
38006,488,573
38013,484,573
38021,482,573
38026,481,573
38033,481,573
38040,483,573
38046,485,573
38053,486,573
38061,489,573
38066,490,573
38073,491,573
38080,491,573
38086,493,573
38093,497,573
38099,500,573
38106,501,573
38113,500,573
38120,502,573
38126,503,573
38133,506,573
38140,508,573
38147,506,573
38153,506,573
38160,508,573
38166,507,573
38173,506,573
38180,506,573
38187,506,573
38193,506,573
38200,507,573
38206,506,573
38213,505,573
38220,510,573
38226,514,573
38234,513,573
38240,513,573
38246,517,573
38252,523,573
38260,530,573
38266,531,573
38274,523,573
38280,517,573
38286,510,573
38293,501,573
38300,498,573
38306,498,573
38313,497,573
38320,495,573
38326,494,573
38333,494,573
38340,497,573
38346,498,573
38353,497,573
38361,498,573
38366,499,573
38373,499,573
38379,491,573
38386,472,573
38393,462,573
38401,505,573
38406,561,573
38413,657,573
38420,743,573
38426,748,573
38433,634,573
38440,491,573
38447,426,573
38453,412,573
38460,436,573
38466,463,573
38473,473,573
38480,478,573
38487,480,573
38493,483,573
38500,487,573
38506,490,573
38513,493,573
38520,495,573
38526,496,573
38532,498,573
38540,500,573
38546,503,573
38553,505,573
38559,508,573
38566,510,573
38574,512,573
38580,517,573
38586,519,573
38593,519,573
38600,521,573
38606,526,573
38614,529,573
38620,531,573
38626,533,573
38633,533,573
38640,533,573
38646,532,573
38653,528,573
38661,523,573
38666,519,573
38673,511,573
38680,503,573
38686,496,573
38693,491,573
38701,485,573
38706,483,573
38712,481,573
38720,481,573
38726,482,573
38733,484,573
38740,483,573
38746,485,573
38753,488,573
38760,489,573
38766,489,573
38773,491,573
38780,495,573
38787,498,573
38793,500,573
38800,501,573
38806,503,573
38813,505,573
38820,507,573
38827,508,573
38833,506,573
38839,506,573
38846,505,573
38853,505,573
38860,506,573
38866,507,573
38874,507,573
38880,506,573
38886,506,573
38893,506,573
38900,511,573
38906,513,573
38914,513,573
38920,514,573
38926,517,573
38933,524,573
38940,530,573
38946,531,573
38953,524,573
38960,516,573
38966,509,573
38973,504,573
38980,498,573
38986,496,573
38992,494,573
39001,494,573
39006,494,573
39013,495,573
39020,495,573
39026,498,573
39033,499,573
39041,499,573
39046,500,573
39053,501,573
39060,495,573
39066,476,573
39073,462,573
39080,487,573
39087,562,573
39093,646,573
39100,723,573
39106,763,573
39113,661,573
39120,511,573
39127,442,573
39133,413,573
39140,432,573
39145,456,573
39153,472,573
39160,478,573
39166,482,573
39173,485,573
39180,490,573
39186,491,573
39193,493,573
39200,494,573
39206,496,573
39214,501,573
39220,504,573
39226,506,573
39233,508,573
39240,509,573
39246,512,573
39254,515,573
39260,519,573
39266,521,573
39272,521,573
39280,524,573
39286,527,573
39293,531,573
39299,534,573
39306,535,573
39313,536,573
39320,535,573
39326,534,573
39333,532,573
39341,527,573
39346,520,573
39353,514,573
39360,507,573
39366,499,573
39373,494,573
39380,491,573
39386,488,573
39393,483,573
39400,482,573
39406,482,573
39413,484,573
39420,486,573
39427,488,573
39433,489,573
39440,491,573
39446,492,573
39452,493,573
39460,496,573
39467,497,573
39473,500,573
39480,502,573
39486,501,573
39493,502,573
39500,503,573
39506,504,573
39514,503,573
39520,504,573
39526,505,573
39533,506,573
39540,507,573
39546,507,573
39554,507,573
39560,506,573
39566,504,573
39573,504,573
39579,506,573
39586,507,573
39593,509,573
39600,512,573
39605,512,573
39613,513,573
39620,520,573
39626,526,573
39633,530,573
39641,528,573
39646,522,573
39653,512,573
39660,506,573
39666,498,573
39673,492,573
39681,490,573
39686,490,573
39693,492,573
39700,493,573
39706,492,573
39713,494,573
39720,496,573
39727,496,573
39732,496,573
39740,497,573
39746,497,573
39753,484,573
39759,465,573
39767,464,573
39773,508,573
39780,603,573
39786,669,573
39793,749,573
39800,717,573
39806,583,573
39813,485,573
39820,420,573
39826,412,573
39833,443,573
39840,465,573
39846,474,573
39854,478,573
39860,481,573
39866,483,573
39873,486,573
39880,489,573
39886,493,573
39894,495,573
39900,499,573
39906,501,573
39912,501,573
39920,503,573
39926,505,573
39933,508,573
39940,510,573
39946,512,573
39953,516,573
39960,519,573
39966,521,573
39973,526,573
39981,530,573
39986,531,573
39993,533,573
40000,534,573
40006,536,573
40012,535,573
40020,532,573
40026,528,573
40033,522,573
40039,517,573
40046,510,573
40053,503,573
40060,497,573
40067,494,573
40073,488,573
40080,484,573
40086,483,573
40093,484,572
40100,485,572
40107,484,573
40113,484,572
40120,486,573
40126,488,572
40133,491,573
40140,495,572
40146,496,572
40154,496,573
40160,497,572
40166,500,572
40173,502,572
40180,503,572
40186,505,573
40193,506,572
40200,505,572
40206,505,573
40213,506,572
40220,507,573
40226,508,572
40233,507,573
40240,506,572
40246,506,572
40253,507,572
40260,506,572
40266,507,572
40273,508,573
40281,511,572
40286,514,572
40293,513,573
40300,516,572
40306,523,573
40313,530,572
40320,532,573
40326,531,573
40333,521,572
40340,513,572
40346,506,573
40353,498,572
40360,495,572
40367,494,573
40373,494,572
40380,495,572
40386,497,572
40393,497,572
40400,497,573
40407,498,572
40413,498,572
40420,500,572
40426,502,572
40433,500,572
40440,483,572
40446,466,572
40453,468,572
40460,526,572
40466,609,572
40472,682,572
40480,750,572
40486,718,573
40494,570,572
40499,480,572
40506,425,572
40513,415,572
40520,445,572
40526,465,572
40534,477,572
40540,481,572
40546,484,572
40553,486,572
40560,489,572
40566,493,572
40573,496,572
40580,499,572
40586,500,572
40593,502,572
40599,504,572
40606,506,572
40613,509,572
40621,511,572
40625,513,572
40633,515,572
40640,518,572
40646,521,572
40653,524,572
40660,527,572
40666,529,572
40673,533,572
40680,535,573
40686,535,572
40693,536,572
40700,535,573
40707,532,573
40713,529,573
40720,524,573
40726,518,573
40733,511,573
40740,503,573
40747,498,573
40753,495,573
40760,491,573
40766,486,573
40773,484,573
40779,484,573
40786,486,573
40794,487,573
40800,488,573
40806,490,573
40813,491,573
40820,492,573
40826,494,573
40834,496,573
40840,497,573
40846,499,573
40853,501,573
40860,503,573
40866,503,573
40873,505,573
40880,505,573
40886,506,573
40893,508,573
40900,507,573
40906,505,573
40913,505,573
40921,507,573
40926,507,573
40932,506,573
40940,505,573
40946,506,573
40953,507,573
40961,508,573
40966,507,573
40973,507,573
40980,506,573
40986,506,573
40993,508,573
41000,512,573
41007,516,573
41013,516,573
41020,516,573
41026,523,573
41033,531,573
41040,533,573
41047,531,573
41053,525,573
41059,517,573
41066,507,573
41073,499,573
41080,496,573
41086,495,572
41093,493,573
41100,492,573
41106,494,573
41113,497,573
41120,497,573
41126,498,572
41134,501,572
41140,501,572
41146,500,572
41153,499,573
41160,482,572
41166,467,572
41174,469,572
41180,523,572
41186,611,572
41193,694,572
41200,768,572
41206,727,572
41212,588,572
41221,459,573
41226,420,572
41233,419,572
41240,447,572
41246,466,572
41253,475,572
41261,480,572
41266,482,572
41273,486,572
41280,489,572
41286,492,572
41293,495,572
41300,497,573
41306,498,572
41313,501,572
41320,502,573
41326,503,572
41333,506,572
41339,509,572
41347,511,572
41353,514,572
41360,517,573
41366,519,572
41373,523,572
41380,527,573
41387,528,572
41393,531,572
41400,535,572
41406,536,572
41413,535,572
41420,535,573
41426,533,572
41434,529,573
41440,525,572
41446,520,572
41453,511,573
41460,505,573
41466,499,572
41474,496,573
41480,491,572
41486,487,572
41492,485,572
41500,484,572
41506,484,572
41513,485,572
41520,487,572
41526,489,572
41533,491,572
41540,493,572
41546,494,572
41553,497,572
41561,498,572
41566,499,572
41573,500,572
41580,502,572
41586,503,572
41593,503,572
41601,504,572
41606,503,572
41613,505,572
41619,507,572
41626,509,572
41633,510,572
41640,506,572
41646,505,572
41653,505,572
41660,505,572
41666,505,572
41673,505,573
41680,507,572
41687,506,572
41693,505,572
41700,506,572
41706,507,572
41713,511,572
41720,516,572
41726,515,572
41733,514,572
41740,521,572
41746,528,572
41753,532,572
41760,532,572
41766,527,572
41773,517,572
41780,508,572
41786,500,572
41793,496,572
41800,494,572
41806,493,572
41814,493,572
41820,494,572
41826,495,572
41833,496,572
41840,497,572
41846,498,572
41853,500,572
41861,501,572
41866,502,572
41873,493,572
41880,471,572
41886,458,572
41893,490,572
41900,571,572
41906,644,572
41913,737,572
41920,758,572
41926,670,572
41933,513,573
41940,428,572
41946,412,572
41953,432,572
41960,462,572
41966,472,572
41973,478,572
41980,481,572
41987,483,572
41993,486,572
42000,490,572
42006,492,572
42013,495,572
42020,497,572
42027,500,572
42033,502,572
42040,503,572
42046,505,572
42052,508,572
42060,510,572
42066,513,572
42074,517,572
42080,518,572
42086,520,572
42093,524,572
42100,526,572
42106,528,572
42114,532,572
42120,533,572
42126,535,572
42133,536,573
42140,535,573
42146,531,573
42153,525,572
42160,520,572
42166,513,572
42173,505,572
42179,498,573
42186,492,573
42193,489,572
42201,486,573
42206,484,572
42213,481,572
42220,480,572
42226,481,572
42233,482,572
42241,485,573
42246,486,573
42253,486,573
42260,487,572
42266,488,572
42273,492,573
42280,495,572
42286,495,573
42293,496,573
42300,497,572
42306,500,573
42313,501,573
42320,501,573
42327,500,573
42332,501,573
42340,501,573
42346,503,573
42353,504,573
42360,502,573
42366,503,573
42373,503,573
42380,502,573
42386,502,573
42393,502,573
42400,501,573
42406,501,573
42414,503,573
42420,502,573
42426,502,573
42433,504,573
42440,508,573
42446,511,573
42454,510,573
42459,511,573
42466,515,573
42473,524,573
42480,530,573
42485,530,573
42493,521,573
42501,512,573
42506,506,573
42513,500,573
42520,496,573
42526,495,573
42533,495,573
42541,496,573
42546,497,573
42553,497,573
42560,497,573
42566,499,573
42573,500,573
42580,500,573
42586,500,573
42593,499,573
42600,487,573
42606,470,573
42612,469,573
42620,522,573
42627,601,573
42633,671,573
42640,734,573
42646,736,573
42653,605,573
42660,483,573
42667,433,573
42673,415,573
42680,432,573
42686,458,573
42693,473,573
42700,480,573
42706,482,573
42714,488,573
42720,491,573
42726,492,573
42733,495,573
42739,496,573
42746,500,573
42754,505,573
42760,507,573
42765,507,573
42773,509,573
42780,512,573
42786,514,573
42793,516,573
42800,518,573
42806,521,573
42813,524,573
42820,526,573
42826,528,573
42833,530,573
42841,533,573
42846,534,573
42853,536,573
42860,535,573
42866,534,573
42873,530,573
42881,524,573
42886,520,573
42892,514,573
42900,506,573
42906,501,573
42913,495,573
42920,491,573
42927,488,573
42933,487,573
42940,488,573
42946,489,573
42953,490,573
42960,489,573
42967,490,573
42973,492,573
42980,494,573
42986,496,573
42993,499,573
43000,499,573
43006,499,573
43013,503,573
43019,505,573
43026,506,573
43033,507,573
43040,505,573
43046,505,573
43054,506,573
43060,507,573
43066,507,573
43073,508,573
43080,508,573
43086,508,573
43094,507,573
43100,506,573
43106,507,573
43113,507,573
43120,507,573
43126,508,573
43133,507,573
43141,505,573
43146,505,573
43153,508,573
43160,512,573
43166,516,573
43172,518,573
43181,516,573
43186,521,573
43193,529,573
43200,533,573
43206,534,574
43213,525,573
43220,514,573
43226,508,573
43233,501,574
43240,496,573
43246,495,573
43253,493,573
43260,491,574
43267,492,573
43273,493,573
43280,493,574
43286,494,573
43293,496,574
43299,496,573
43307,499,573
43313,500,573
43320,491,574
43325,474,573
43333,458,573
43340,495,573
43346,582,574
43354,676,573
43360,761,574
43366,778,574
43373,650,574
43380,508,574
43386,433,574
43394,419,574
43400,442,574
43406,458,574
43413,467,574
43420,471,574
43426,474,574
43433,478,574
43440,481,574
43446,484,574
43452,487,574
43460,491,574
43466,493,574
43473,497,574
43480,500,574
43486,500,574
43493,500,574
43500,502,574
43506,504,574
43513,508,574
43521,512,574
43526,515,574
43533,518,574
43540,521,574
43546,524,574
43553,528,574
43560,530,574
43567,530,574
43573,531,574
43580,532,574
43586,533,574
43593,531,574
43600,525,574
43606,520,574
43613,512,574
43620,505,574
43626,499,574
43632,495,574
43640,491,574
43646,488,574
43653,485,574
43660,484,574
43666,484,574
43673,485,574
43680,487,574
43686,488,574
43694,490,574
43700,492,574
43706,493,574
43713,493,574
43720,496,574
43726,499,574
43734,501,574
43740,499,574
43746,499,574
43753,501,574
43759,502,574
43766,504,574
43773,507,574
43781,506,574
43786,506,574
43793,506,574
43800,506,574
43806,508,574
43813,506,574
43821,504,574
43826,505,574
43833,507,574
43840,506,574
43846,505,574
43853,505,574
43860,508,574
43866,511,574
43873,517,574
43880,517,574
43886,517,574
43893,523,574
43900,530,574
43907,533,574
43912,533,574
43920,523,574
43926,515,574
43933,504,574
43940,496,574
43947,493,574
43953,493,574
43960,492,574
43966,492,574
43973,493,574
43980,495,574
43986,496,574
43994,496,574
44000,497,574
44006,498,574
44013,500,574
44020,499,574
44026,490,574
44034,467,574
44039,458,574
44046,490,574
44053,588,574
44060,693,574
44065,763,574
44073,756,574
44080,628,574
44086,493,574
44093,426,574
44100,419,574
44106,445,574
44113,464,574
44121,470,574
44126,474,574
44133,478,574
44140,480,574
44146,482,574
44153,487,574
44161,490,574
44166,492,574
44173,493,574
44180,495,574
44186,498,574
44192,500,574
44200,503,574
44207,506,574
44213,509,574
44220,510,574
44226,512,574
44233,514,574
44240,520,574
44247,524,574
44253,526,574
44260,528,574
44266,529,574
44273,533,574
44280,534,574
44286,532,574
44293,530,574
44300,527,574
44306,524,574
44313,518,574
44319,512,574
44326,505,574
44334,499,574
44340,494,574
44345,490,574
44353,486,574
44360,484,574
44366,484,574
44374,484,574
44380,485,574
44386,488,574
44393,490,574
44400,491,574
44406,492,574
44413,493,574
44421,495,574
44426,496,574
44433,496,574
44440,498,574
44446,501,574
44453,504,574
44461,504,574
44466,504,574
44472,504,574
44480,505,574
44486,506,574
44493,509,574
44500,507,574
44506,506,574
44513,506,574
44520,506,574
44526,505,574
44533,505,574
44540,506,574
44547,507,574
44553,509,574
44560,507,574
44566,504,574
44573,507,574
44580,513,574
44587,517,574
44593,516,574
44599,518,574
44606,524,574
44613,530,574
44620,533,574
44626,527,574
44634,516,574
44640,509,574
44646,503,574
44653,499,574
44660,495,574
44666,494,574
44674,494,574
44680,494,574
44686,494,574
44693,496,574
44700,497,574
44706,498,574
44713,500,574
44720,500,574
44726,501,574
44733,498,574
44740,479,574
44746,461,574
44752,471,574
44761,545,574
44766,620,574
44773,716,574
44780,769,575
44786,707,575
44793,547,574
44801,440,575
44806,416,574
44813,424,574
44820,456,574
44826,471,574
44833,477,574
44840,480,574
44847,482,574
44853,487,574
44860,490,574
44866,491,574
44873,492,574
44879,495,574
44887,497,574
44893,499,574
44900,502,574
44905,505,574
44913,507,574
44920,510,574
44926,514,574
44933,515,574
44940,518,574
44946,518,574
44953,523,574
44960,526,574
44966,527,574
44974,529,574
44980,531,574
44986,532,574
44993,534,574
45000,534,574
45006,531,574
45014,527,574
45020,524,574
45026,517,574
45032,509,574
45040,501,574
45046,497,574
45053,493,574
45060,490,574
45066,487,574
45073,486,574
45080,485,574
45086,485,574
45093,485,574
45101,485,575
45106,487,574
45113,489,574
45120,492,574
45126,494,574
45133,496,575
45140,498,574
45146,501,574
45153,502,574
45159,505,574
45166,506,574
45173,503,574
45180,502,574
45187,503,574
45193,505,574
45200,506,575
45206,505,575
45213,505,575
45220,506,575
45227,506,574
45233,506,575
45240,506,575
45246,507,575
45253,507,575
45260,506,575
45266,504,575
45274,503,575
45280,505,575
45286,506,575
45293,508,575
45300,512,575
45306,514,575
45313,513,575
45320,516,575
45326,523,575
45333,530,575
45340,532,575
45346,530,575
45353,521,575
45360,513,575
45366,506,575
45373,499,575
45380,499,575
45386,495,575
45393,492,575
45401,494,575
45406,495,575
45413,496,575
45420,497,575
45426,498,575
45433,500,575
45440,502,575
45446,503,575
45453,500,575
45460,482,575
45466,465,575
45473,468,575
45480,537,575
45487,622,575
45493,688,575
45500,759,575
45506,715,575
45513,564,575
45520,462,575
45527,422,575
45533,425,575
45540,454,575
45546,467,575
45553,474,575
45560,479,575
45566,484,575
45573,486,575
45580,487,575
45586,491,575
45592,494,575
45600,495,575
45606,497,575
45614,502,575
45620,506,575
45626,506,575
45633,506,575
45640,509,575
45646,510,575
45654,514,575
45660,517,575
45666,520,575
45673,523,575
45680,526,575
45686,527,575
45693,531,575
45700,533,575
45706,534,575
45713,534,575
45719,532,575
45726,531,575
45733,529,575
45741,523,575
45746,519,575
45753,512,575
45760,505,575
45766,498,575
45773,492,575
45780,489,575
45786,489,575
45793,486,575
45800,483,575
45806,484,575
45813,486,575
45820,489,575
45827,490,575
45833,491,575
45840,493,575
45846,493,575
45853,494,575
45860,498,575
45867,500,575
45872,501,575
45880,503,575
45886,504,575
45893,504,575
45900,503,575
45906,504,575
45914,504,575
45920,506,575
45926,506,575
45933,507,575
45940,507,575
45946,507,575
45954,507,575
45960,506,575
45966,505,575
45973,507,575
45980,506,575
45986,504,575
45993,504,575
45999,506,575
46006,509,575
46013,513,575
46020,514,575
46025,513,575
46033,517,575
46041,525,575
46046,529,575
46053,532,575
46060,528,575
46066,520,575
46073,509,575
46081,501,575
46086,496,575
46093,493,575
46100,493,575
46106,493,575
46113,495,575
46120,495,575
46127,497,575
46133,497,575
46140,498,575
46146,499,575
46152,501,575
46160,501,575
46167,495,575
46173,477,575
46180,461,575
46186,474,575
46193,549,575
46200,644,575
46206,710,575
46213,759,575
46220,676,575
46226,545,575
46233,449,575
46240,411,575
46246,427,575
46254,458,575
46260,470,575
46266,477,575
46273,481,575
46279,486,575
46286,488,575
46294,488,575
46300,490,575
46305,492,575
46313,494,575
46320,498,575
46326,501,575
46333,503,575
46341,506,575
46346,507,575
46353,510,575
46360,513,575
46366,516,575
46373,519,575
46381,522,575
46386,525,575
46393,526,575
46400,528,575
46406,530,575
46413,532,575
46420,533,575
46426,534,576
46432,535,575
46440,533,576
46446,528,575
46453,521,575
46460,516,576
46467,510,576
46473,503,575
46480,497,576
46486,492,575
46493,487,575
46500,485,576
46507,483,576
46513,482,576
46520,484,576
46526,485,575
46533,486,576
46540,489,576
46546,491,576
46554,492,576
46559,495,576
46566,498,576
46573,496,576
46580,499,576
46586,501,576
46594,501,576
46600,502,576
46606,503,576
46613,505,576
46620,505,576
46626,506,576
46633,507,576
46640,506,576
46646,505,576
46653,506,576
46660,506,576
46666,507,576
46673,508,576
46681,505,576
46686,505,576
46693,505,576
46700,506,576
46706,510,576
46712,513,576
46721,514,576
46726,518,576
46733,527,576
46740,532,576
46746,533,576
46753,524,576
46760,515,576
46766,510,576
46773,500,576
46780,495,576
46786,494,576
46793,492,576
46800,494,576
46807,497,576
46813,498,576
46820,496,576
46826,496,576
46833,498,576
46839,499,576
46846,500,576
46853,500,576
46860,496,576
46865,483,576
46873,462,576
46880,477,576
46886,547,576
46894,631,576
46900,711,576
46906,760,576
46913,677,576
46920,544,576
46926,448,576
46934,412,576
46940,429,576
46946,457,576
46953,474,576
46960,476,576
46966,479,576
46973,482,576
46981,485,576
46986,488,576
46992,491,576
47000,495,576
47006,498,576
47013,501,576
47021,504,576
47026,506,576
47033,508,576
47040,510,576
47046,511,576
47053,514,576
47060,516,576
47066,517,576
47073,519,576
47080,522,576
47086,526,576
47093,530,576
47100,532,576
47107,534,576
47113,536,576
47119,536,576
47126,534,576
47133,531,576
47140,526,576
47147,521,576
47153,515,576
47160,507,576
47166,501,576
47173,496,576
47180,491,576
47186,487,576
47194,483,576
47200,481,576
47206,482,576
47213,483,576
47220,486,576
47226,487,576
47234,489,576
47240,490,576
47246,493,576
47253,494,576
47260,496,576
47266,497,576
47272,499,576
47280,501,576
47286,503,576
47293,502,576
47300,505,576
47306,507,576
47313,505,576
47321,504,576
47326,504,576
47333,505,576
47340,504,576
47346,504,576
47353,504,576
47361,505,576
47366,506,576
47373,507,576
47380,508,576
47386,511,576
47393,513,576
47399,515,576
47407,518,576
47413,524,576
47420,529,576
47426,530,576
47433,525,576
47440,514,576
47447,505,576
47453,499,576
47460,496,576
47466,495,576
47473,493,576
47480,492,576
47486,491,576
47493,494,576
47500,496,576
47506,497,576
47513,500,576
47520,501,576
47526,503,576
47534,502,576
47540,493,576
47546,472,576
47552,460,576
47560,496,576
47566,577,576
47574,672,576
47580,739,576
47586,759,576
47593,629,576
47600,485,576
47606,428,576
47613,410,576
47621,441,576
47626,464,576
47633,475,576
47640,480,576
47646,482,576
47653,486,576
47661,489,576
47666,490,576
47673,495,576
47679,497,576
47686,498,576
47693,499,576
47700,503,576
47706,506,576
47713,506,576
47720,508,576
47726,511,576
47733,512,576
47740,514,576
47747,518,576
47753,523,576
47760,527,576
47766,527,576
47773,529,576
47780,535,576
47787,535,576
47793,533,576
47800,533,576
47806,532,576
47813,530,576
47820,525,577
47826,518,576
47833,511,576
47840,504,576
47846,498,576
47853,491,576
47860,488,576
47866,487,576
47874,486,576
47880,484,576
47886,483,576
47893,485,576
47900,488,576
47906,489,576
47913,487,576
47920,486,577
47926,489,576
47933,492,576
47940,495,576
47946,498,577
47953,500,576
47960,501,576
47966,503,576
47973,503,577
47980,506,577
47985,504,576
47993,504,576
48001,508,577
48006,509,577
48013,507,577
48020,505,577
48026,505,577
48033,505,576
48040,507,577
48047,509,577
48053,513,577
48060,513,577
48066,512,577
48073,514,577
48080,519,577
48087,523,577
48093,526,577
48100,528,577
48106,522,577
48112,513,577
48120,503,577
48126,497,577
48133,495,577
48140,495,577
48146,492,577
48153,491,577
48160,492,577
48166,493,577
48174,496,577
48180,497,577
48186,498,577
48193,499,577
48200,499,577
48206,500,577
48214,487,577
48220,469,577
48226,459,577
48233,497,577
48239,579,577
48246,660,577
48253,744,577
48261,729,577
48265,645,577
48273,498,577
48280,423,577
48286,414,577
48293,440,577
48301,467,577
48306,474,577
48313,480,577
48320,483,577
48326,484,577
48333,486,577
48340,490,577
48346,492,577
48353,496,577
48360,499,577
48366,501,577
48373,504,577
48380,506,577
48387,506,577
48392,507,577
48400,512,577
48406,516,577
48413,518,577
48419,521,577
48427,524,577
48433,527,577
48440,529,577
48446,530,577
48453,530,577
48460,534,577
48466,535,577
48474,534,577
48480,533,577
48486,530,577
48493,524,577
48500,519,577
48506,512,577
48514,505,577
48520,498,577
48526,492,577
48533,486,577
48540,485,577
48546,484,577
48553,483,577
48560,482,577
48566,482,577
48572,486,577
48580,490,577
48586,489,577
48593,490,577
48601,493,577
48606,494,577
48613,496,577
48620,498,577
48626,499,577
48633,502,577
48641,504,577
48646,504,577
48653,506,577
48660,508,577
48666,507,577
48672,506,577
48680,505,577
48687,506,577
48693,507,577
48699,506,577
48706,506,577
48713,511,577
48720,514,577
48727,514,577
48733,513,577
48740,518,577
48746,526,577
48753,530,577
48760,530,577
48766,523,577
48773,515,577
48780,508,577
48786,500,577
48793,495,577
48800,494,577
48806,495,577
48814,496,577
48820,495,577
48826,494,577
48833,495,577
48840,496,577
48846,497,577
48852,499,577
48860,499,577
48866,501,577
48873,494,577
48880,474,577
48886,462,577
48893,494,577
48901,587,577
48906,644,577
48913,736,577
48920,754,577
48926,642,577
48933,510,577
48941,425,577
48946,413,577
48953,440,577
48960,465,577
48966,476,577
48973,480,577
48979,481,577
48986,484,577
48993,491,577
49000,492,577
49006,493,577
49013,498,577
49020,499,577
49027,499,577
49033,500,577
49040,504,577
49046,507,577
49053,510,577
49060,512,577
49067,514,577
49073,517,577
49080,521,577
49086,523,577
49093,525,577
49100,530,577
49106,532,577
49114,532,577
49120,535,577
49126,538,577
49132,538,577
49140,537,577
49146,533,577
49154,526,577
49160,521,577
49166,514,577
49173,503,577
49180,498,577
49186,495,577
49193,490,577
49200,488,577
49206,486,577
49213,483,577
49220,486,577
49226,488,577
49233,488,577
49241,488,577
49246,490,577
49253,492,577
49259,494,577
49266,495,577
49273,497,577
49281,500,578
49286,501,578
49293,502,577
49300,504,577
49306,505,577
49313,506,577
49320,507,578
49327,508,578
49333,507,577
49340,508,578
49346,507,578
49353,508,578
49360,509,578
49367,509,578
49373,512,578
49380,515,578
49386,513,578
49393,515,578
49400,525,578
49406,531,578
49412,533,578
49420,527,578
49426,519,578
49433,511,578
49440,501,578
49446,497,578
49454,495,578
49460,494,578
49466,493,578
49473,492,578
49480,494,578
49486,496,578
49494,496,578
49500,497,578
49506,499,578
49513,499,578
49520,499,578
49526,495,578
49533,474,578
49539,463,578
49546,474,578
49553,551,578
49560,652,578
49565,722,578
49573,767,578
49581,650,578
49586,536,578
49593,445,578
49600,414,578
49606,433,578
49613,463,578
49620,472,578
49626,476,578
49633,480,578
49640,483,578
49646,484,578
49653,488,578
49660,493,578
49667,496,578
49673,497,578
49680,498,578
49686,500,578
49692,504,578
49700,506,578
49707,508,578
49713,511,578
49720,514,578
49726,516,578
49733,519,578
49740,522,578
49746,523,578
49754,525,578
49760,529,578
49766,532,578
49773,535,578
49780,536,578
49786,536,578
49794,534,578
49800,531,578
49806,526,578
49813,520,578
49819,515,578
49826,506,578
49833,497,578
49840,491,578
49845,487,578
49853,484,578
49860,482,578
49866,481,578
49873,481,578
49881,482,578
49886,483,578
49893,484,578
49900,488,578
49906,491,578
49913,493,578
49921,496,578
49926,495,578
49933,498,578
49940,500,578
49946,499,578
49953,498,578
49960,501,578
49967,503,578
49972,504,578
49980,505,578
49986,505,578
49993,506,578
50000,506,578
50007,506,578
50013,508,578
50020,509,578
50026,506,578
50033,503,578
50040,503,578
50046,504,578
50053,506,578
50060,508,578
50066,512,578
50073,512,578
50080,516,578
50086,523,578
50094,530,578
50099,532,578
50106,528,578
50113,518,578
50120,512,578
50126,505,578
50134,496,578
50140,494,578
50146,494,578
50153,494,578
50160,493,578
50166,493,578
50173,496,578
50180,496,578
50186,495,578
50193,497,578
50200,500,578
50206,500,578
50213,497,578
50221,478,578
50226,462,578
50233,468,578
50240,533,578
50246,619,578
50252,699,578
50260,759,578
50266,712,578
50273,560,578
50280,459,578
50286,418,578
50293,423,578
50300,457,578
50307,470,578
50313,477,578
50320,481,578
50326,484,578
50333,487,578
50340,490,578
50347,494,578
50353,494,578
50360,496,578
50366,498,578
50373,500,578
50379,503,578
50386,506,578
50394,508,578
50400,511,578
50405,513,578
50413,515,578
50420,520,578
50426,523,578
50434,525,578
50440,528,578
50446,529,578
50453,531,578
50460,534,578
50466,535,578
50473,536,578
50480,536,578
50486,533,578
50493,527,578
50500,521,578
50506,515,578
50513,508,578
50521,499,578
50526,493,578
50532,488,578
50540,484,578
50546,483,578
50553,483,578
50561,482,578
50566,481,578
50573,482,578
50580,484,578
50586,486,578
50593,489,578
50600,491,578
50607,492,578
50613,492,578
50620,494,578
50626,497,578
50633,498,578
50640,496,578
50647,498,578
50653,501,578
50659,503,578
50666,505,578
50673,505,578
50680,505,578
50686,505,578
50693,506,579
50700,505,578
50706,503,578
