TimeStamp,ECG Data,GSR Data
290267,528,600
290273,530,600
290280,531,600
290286,527,600
290293,519,601
0,505,613
6,499,611
13,496,611
20,494,611
26,494,610
33,496,610
40,497,610
47,496,610
53,497,610
60,499,609
66,500,609
73,500,609
79,498,609
87,489,608
93,474,608
100,472,608
105,498,608
113,585,608
120,677,608
126,751,608
134,728,608
140,619,608
146,494,607
153,423,607
160,418,607
166,442,607
174,467,607
180,475,607
186,479,607
193,481,607
200,486,607
206,491,607
214,493,607
219,493,607
226,493,607
233,498,607
240,500,607
245,503,607
253,510,607
261,512,607
266,509,607
272,508,607
280,513,607
286,518,607
293,521,607
301,523,607
306,527,607
313,532,607
320,537,607
326,538,607
333,540,607
340,541,607
347,540,607
353,538,607
360,532,607
366,524,607
373,516,607
380,509,607
387,500,607
393,489,607
400,482,607
406,481,607
412,478,607
420,478,607
427,479,607
433,481,607
439,484,607
446,485,607
453,486,607
460,487,607
465,488,607
474,491,607
480,491,607
486,493,607
492,496,607
500,501,607
506,503,607
514,502,607
520,502,607
526,501,607
533,502,607
540,504,607
546,504,607
553,504,607
561,506,607
566,506,607
573,507,607
580,507,607
586,507,607
593,505,607
601,504,607
606,504,607
613,504,607
620,504,607
626,504,607
632,505,607
641,509,607
646,512,607
653,513,607
659,515,607
666,518,608
673,523,608
680,527,608
686,531,608
693,528,608
700,518,608
706,512,608
712,503,608
720,497,608
727,496,608
733,495,608
740,496,608
746,495,608
753,495,608
760,496,608
766,499,608
773,499,608
780,500,608
786,498,608
793,496,608
800,488,608
806,471,608
814,463,608
820,504,608
826,574,608
833,662,608
840,740,608
846,739,608
854,622,608
860,501,608
866,434,608
873,416,608
879,439,608
886,463,608
893,479,608
901,485,608
906,481,608
913,480,608
920,486,608
926,490,608
932,490,608
941,495,608
946,502,608
953,510,608
959,505,608
966,499,609
973,503,609
980,505,609
985,507,608
993,512,609
1000,515,609
1006,518,609
1012,525,609
1020,530,609
1027,533,609
1033,538,609
1039,544,609
1046,540,609
1053,536,609
1060,538,609
1067,538,609
1073,534,609
1080,523,609
1086,514,609
1093,503,609
1100,500,609
1106,490,609
1114,483,609
1120,481,609
1126,482,609
1133,487,609
1140,481,609
1146,476,609
1154,479,609
1160,480,609
1166,480,609
1173,483,609
1180,486,609
1186,492,609
1193,494,610
1201,495,610
1206,496,610
1213,498,610
1220,500,610
1226,502,610
1232,504,610
1241,505,610
1246,505,610
1253,506,610
1259,508,610
1266,508,610
1273,508,610
1281,507,610
1285,507,610
1293,508,610
1300,509,610
1306,512,610
1312,514,611
1320,517,610
1327,518,611
1333,521,611
1339,525,611
1346,529,611
1353,530,611
1360,522,611
1367,517,611
1373,513,611
1380,502,611
1386,495,611
1393,495,611
1400,495,611
1406,493,612
1414,498,612
1420,500,612
1426,497,612
1433,495,612
1440,499,612
1446,498,612
1454,494,612
1460,497,612
1466,489,612
1473,467,612
1480,462,612
1486,493,612
1494,590,612
1500,678,612
1506,751,612
1513,764,612
1520,619,612
1526,490,612
1532,424,612
1541,410,612
1546,432,612
1553,461,612
1559,475,612
1566,487,612
1573,489,612
1581,475,612
1585,477,612
1593,487,612
1600,483,612
1606,484,612
1612,488,612
1620,496,612
1627,503,613
1633,504,612
1639,510,613
1646,539,612
1653,531,612
1660,530,612
1667,528,612
1673,505,612
1680,500,613
1686,513,612
1693,523,612
1700,528,612
1707,534,612
1713,538,612
1720,539,612
1726,538,613
1733,535,612
1740,530,612
1746,518,613
1754,508,613
1760,503,612
1766,501,613
1773,495,612
1780,490,612
1786,487,612
1794,483,613
1800,481,612
1806,481,612
1813,481,612
1820,484,612
1826,487,612
1832,489,612
1841,490,612
1846,492,612
1853,494,612
1859,494,612
1866,499,612
1873,508,611
1881,495,611
1885,494,611
1893,503,611
1900,498,611
1906,498,611
1912,503,611
1921,505,610
1926,506,610
1933,507,610
1939,506,610
1946,504,610
1953,505,610
1960,507,610
1967,509,610
1973,508,610
1980,506,609
1986,507,609
1993,507,609
2000,508,609
2007,509,609
2013,512,609
2020,523,609
2026,519,609
2033,512,609
2040,519,609
2046,527,609
2053,531,609
2060,533,609
2066,525,609
2073,516,609
2079,507,609
2086,500,609
2094,499,609
2100,499,609
2106,498,609
2113,502,609
2120,504,609
2126,500,609
2132,497,609
2140,491,609
2146,487,609
2153,490,609
2159,498,609
2166,496,609
2173,475,610
2181,459,610
2185,471,610
2193,545,610
2200,649,610
2206,734,610
2212,769,610
2221,664,610
2226,544,610
2233,441,610
2240,414,610
2246,432,610
2253,462,610
2260,474,610
2267,478,610
2273,481,610
2280,484,610
2286,488,610
2293,492,610
2300,495,610
2307,496,610
2313,501,610
2320,505,610
2326,502,610
2333,500,610
2340,503,610
2347,506,610
2353,510,610
2360,514,611
2366,517,610
2373,520,610
2379,524,610
2386,528,610
2394,531,610
2400,535,610
2406,538,610
2413,542,610
2420,542,610
2426,541,610
2433,539,610
2440,535,610
2446,529,610
2453,516,610
2459,507,610
2466,500,610
2473,493,610
2481,487,610
2485,484,610
2493,481,610
2500,480,610
2506,480,610
2512,485,610
2521,485,610
2526,480,610
2533,480,610
2540,484,610
2546,488,610
2553,488,610
2561,490,610
2566,491,610
2573,494,610
2580,496,610
2586,498,610
2593,500,611
2600,502,611
2607,503,611
2613,504,611
2620,504,611
2626,505,611
2633,505,610
2640,506,611
2647,505,611
2653,505,611
2660,506,611
2666,507,611
2673,507,611
2679,505,610
2686,505,611
2694,507,610
2700,507,610
2706,506,611
2713,508,610
2720,512,610
2726,514,610
2733,513,611
2740,518,611
2746,525,610
2753,530,611
2759,532,611
2766,527,611
2774,517,610
2780,512,610
2785,508,610
2793,498,610
2800,494,610
2806,493,610
2812,493,610
2821,494,610
2826,495,610
2833,496,610
2839,497,610
2846,498,610
2853,499,610
2861,499,610
2866,498,610
2873,487,610
2880,466,610
2886,467,610
2893,527,610
2900,611,610
2907,687,610
2913,752,610
2920,714,610
2926,600,610
2933,469,610
2940,417,610
2947,417,610
2953,438,610
2960,463,610
2966,474,610
2973,481,610
2980,486,610
2987,489,610
2993,490,610
3000,491,610
3006,492,610
3013,494,610
3020,496,610
3026,499,610
3033,502,610
3040,505,610
3046,506,610
3053,510,610
3059,514,610
3066,516,610
3074,521,610
3080,524,610
3085,526,610
3093,529,610
3100,532,611
3106,535,611
3112,539,611
3121,540,611
3126,539,611
3133,537,611
3140,533,611
3146,528,611
3153,519,611
3161,511,611
3166,504,611
3173,496,611
3180,491,611
3186,486,611
3193,484,611
3201,481,611
3206,480,611
3213,480,611
3220,482,611
3226,483,611
3233,484,611
3240,486,611
3247,484,611
3253,486,611
3260,489,611
3266,493,611
3273,493,611
3280,495,611
3287,499,611
3293,501,611
3300,502,611
3306,502,611
3313,504,611
3320,506,611
3326,508,611
3332,507,611
3340,504,611
3346,505,611
3353,506,611
3359,506,611
3366,506,611
3374,506,611
3380,506,611
3385,507,611
3393,508,611
3400,508,611
3406,508,611
3412,509,611
3420,507,611
3426,505,611
3433,507,611
3440,511,611
3446,513,611
3453,515,611
3461,518,611
3466,524,611
3473,530,611
3480,534,612
3486,533,612
3493,523,612
3501,515,612
3506,509,612
3513,501,612
3520,496,612
3526,496,612
3533,494,612
3540,492,612
3547,493,612
3553,493,612
3560,493,612
3566,495,612
3573,497,612
3579,499,612
3587,499,612
3593,493,612
3600,472,612
3605,458,612
3613,476,612
3620,562,612
3627,657,613
3632,732,613
3640,774,613
3646,686,613
3653,520,613
3659,437,613
3666,415,613
3674,439,613
3680,460,613
3686,468,613
3693,473,613
3700,476,613
3706,482,613
3714,484,613
3720,485,613
3726,488,613
3733,491,613
3740,493,613
3746,493,613
3753,496,613
3761,500,613
3766,502,613
3773,505,613
3780,511,612
3786,511,612
3793,516,612
3800,521,612
3806,523,612
3813,527,612
3820,531,613
3825,533,612
3833,536,612
3841,538,612
3846,540,612
3852,540,612
3860,536,612
3866,533,612
3873,527,612
3879,517,612
3887,509,612
3893,503,612
3900,494,612
3906,488,612
3913,487,612
3920,483,612
3927,481,612
3933,481,612
3940,480,612
3946,480,612
3953,480,612
3960,482,612
3966,485,612
3974,489,612
3980,491,612
3986,492,612
3992,494,612
4000,496,612
4006,497,612
4014,498,612
4019,501,612
4026,505,612
4033,504,612
4040,503,612
4045,506,612
4054,508,612
4060,504,612
4066,504,612
4073,505,612
4080,506,612
4086,506,612
4093,507,612
4101,507,612
4106,507,612
4113,506,612
4120,508,612
4126,508,612
4133,508,612
4141,511,613
4146,512,612
4153,507,613
4160,503,613
4166,504,613
4173,507,613
4180,508,613
4186,509,613
4193,515,613
4200,517,613
4206,517,613
4212,523,614
4220,531,614
4227,534,614
4233,534,614
4239,526,614
4246,517,614
4253,511,614
4260,502,614
4265,496,614
4273,491,614
4280,492,614
4286,494,614
4292,495,614
4300,494,614
4306,494,614
4314,496,614
4320,497,614
4326,499,614
4333,500,614
4340,494,614
4346,474,614
4354,457,614
4360,471,614
4366,541,614
4373,648,614
4380,731,614
4386,768,614
4393,670,614
4401,515,614
4406,453,614
4413,415,614
4420,436,614
4426,460,614
4432,472,614
4441,476,614
4446,478,614
4453,482,614
4459,485,613
4466,486,613
4473,488,614
4481,495,613
4485,498,613
4493,498,613
4500,498,613
4506,504,613
4512,508,613
4520,508,613
4527,509,613
4533,514,613
4540,517,613
4546,516,613
4553,518,613
4560,524,613
4567,528,613
4573,531,613
4580,534,613
4586,537,613
4593,541,613
4600,542,613
4606,541,613
4614,534,613
4620,527,613
4626,520,613
4633,508,613
4640,498,613
4646,491,613
4653,488,613
4660,485,613
4666,481,613
4673,479,613
4679,480,613
4686,481,613
4694,485,613
4700,484,613
4705,484,613
4713,485,613
4720,488,613
4726,488,613
4733,492,613
4741,492,613
4746,493,613
4753,495,613
4760,497,613
4766,498,613
4773,499,614
4781,502,614
4786,504,613
4793,506,613
4800,506,613
4806,505,613
4813,506,613
4820,505,613
4827,503,614
4833,507,613
4840,507,613
4846,505,613
4853,505,613
4860,504,613
4867,504,614
4872,505,613
4880,505,614
4886,506,613
4893,507,613
4899,507,613
4907,507,613
4913,508,613
4920,511,613
4925,510,614
4933,509,613
4940,508,613
4946,507,613
4954,505,613
4960,508,614
4966,508,613
4973,508,613
4980,510,613
4986,513,614
4994,518,614
5000,518,614
5006,519,613
5013,524,613
5020,531,614
5026,537,614
5033,535,614
5040,527,613
5046,517,614
5053,513,614
5060,503,613
5066,495,614
5073,491,613
5081,494,614
5086,495,613
5092,497,613
5100,498,613
5106,499,613
5113,500,613
5120,500,613
5126,501,613
5133,499,613
5140,480,613
5145,465,613
5153,470,614
5160,536,613
5167,619,613
5172,686,613
5180,759,614
5186,711,613
5193,562,613
5200,453,613
5207,422,613
5213,426,613
5220,454,614
5226,468,613
5233,474,614
5240,479,614
5246,483,614
5254,487,614
5260,491,614
5266,494,614
5273,495,614
5280,496,614
5286,498,614
5294,502,614
5300,505,615
5306,508,614
5313,511,615
5320,514,615
5326,514,615
5334,513,615
5339,514,615
5346,518,615
5353,523,615
5360,529,615
5365,532,615
5373,537,615
5381,540,615
5386,541,615
5392,542,615
5400,541,615
5406,538,615
5413,533,615
5421,526,616
5426,516,615
5433,502,616
5440,493,616
5446,489,616
5453,486,616
5460,479,616
5467,478,616
5473,479,616
5480,481,616
5486,483,616
5493,482,616
5500,486,616
5507,488,616
5513,486,616
5520,485,616
5526,488,616
5533,493,616
5540,496,615
5547,495,615
5553,496,615
5559,499,615
5566,503,615
5573,507,615
5580,503,615
5585,501,615
5594,502,615
5600,504,615
5606,504,615
5612,504,615
5620,503,615
5626,503,615
5634,508,615
5639,511,615
5646,509,615
5653,508,615
5660,510,615
5666,514,615
5673,508,615
5681,500,615
5686,501,615
5693,504,615
5700,505,615
5706,506,615
5713,508,615
5721,508,615
5726,508,615
5733,508,615
5740,509,615
5746,509,615
5753,509,615
5761,510,615
5766,510,615
5773,509,615
5779,510,615
5786,512,615
5793,513,615
5800,512,615
5806,516,615
5813,523,615
5820,532,615
5826,534,615
5832,530,615
5840,521,615
5847,518,615
5853,513,615
5859,505,615
5866,497,615
5873,497,615
5880,498,615
5886,497,615
5893,496,615
5900,496,615
5906,498,615
5913,500,615
5920,502,615
5926,500,615
5934,496,615
5940,478,615
5946,463,615
5953,475,615
5960,555,615
5966,637,615
5974,714,615
5980,759,615
5986,689,615
5993,537,615
5999,446,615
6006,416,615
6013,432,615
6021,462,615
6025,472,615
6033,479,615
6040,483,615
6046,485,615
6052,485,615
6061,490,615
6066,490,615
6073,491,615
6079,494,615
6086,497,615
6093,499,615
6100,503,615
6107,506,615
6113,507,615
6120,511,615
6126,515,615
6133,519,615
6140,523,615
6147,526,615
6153,527,615
6160,529,615
6166,531,615
6173,536,615
6180,538,615
6187,539,615
6193,539,615
6200,537,615
6206,535,615
6213,528,615
6220,521,615
6226,515,615
6234,506,615
6240,495,615
6246,486,615
6253,478,615
6260,477,615
6266,477,615
6273,478,615
6280,478,615
6286,480,615
6293,483,615
6299,485,615
6306,486,615
6313,488,615
6321,490,615
6326,492,615
6333,494,615
6340,495,615
6346,501,615
6353,497,615
6361,494,615
6366,498,616
6373,502,615
6380,504,616
6386,505,616
6393,504,616
6401,505,616
6406,509,616
6413,508,616
6420,504,616
6426,504,616
6433,505,616
6440,506,616
6447,505,616
6453,504,616
6460,503,616
6466,505,616
6473,507,617
6480,506,617
6487,506,617
6492,506,617
6500,507,617
6506,506,617
6513,504,617
6519,503,617
6526,505,617
6534,510,617
6540,512,617
6546,514,617
6553,520,617
6560,528,617
6566,532,617
6574,537,617
6580,533,617
6586,520,617
6593,511,617
6600,502,617
6606,497,617
6614,492,617
6620,494,617
6626,497,617
6633,497,617
6640,498,617
6646,496,617
6653,496,617
6660,498,617
6666,504,617
6673,505,617
6680,498,617
6685,481,617
6693,464,617
6701,482,617
6706,537,617
6712,618,617
6720,707,617
6726,752,617
6733,668,617
6739,544,617
6747,454,617
6753,419,617
6760,429,617
6765,455,617
6773,474,617
6780,480,617
6787,482,617
6793,483,617
6800,486,617
6806,489,617
6813,493,617
6820,495,617
6827,496,617
6833,500,616
6840,505,617
6846,507,616
6853,510,616
6860,513,617
6866,513,616
6874,515,616
6880,518,616
6886,522,616
6893,527,616
6900,526,616
6906,527,616
6914,534,616
6920,537,616
6926,539,616
6932,541,616
6940,540,616
6946,539,616
6953,537,616
6959,531,616
6966,522,616
6973,513,616
6980,505,616
6985,496,616
6993,491,616
7001,483,617
7006,477,616
7012,476,616
7020,477,616
7026,480,616
7033,482,616
7041,483,616
7046,485,616
7053,484,616
7060,487,616
7066,488,616
7073,489,616
7080,491,616
7087,493,616
7093,497,616
7100,498,616
7106,499,616
7113,501,616
7120,505,616
7127,505,616
7133,503,616
7140,503,617
7146,501,617
7153,504,616
7160,503,616
7166,506,617
7174,507,617
7180,508,617
7186,508,616
7193,508,617
7200,505,617
7205,505,617
7214,506,617
7220,508,617
7226,508,617
7232,512,617
7240,514,617
7246,517,617
7254,519,617
7259,524,617
7266,530,617
7273,530,617
7280,528,617
7285,525,617
7293,517,617
7301,509,617
7306,501,617
7312,499,617
7320,498,617
7326,496,617
7333,496,617
7341,496,617
7346,496,617
7353,499,617
7360,498,617
7366,494,617
7373,494,617
7380,496,617
7387,495,617
7393,485,617
7400,463,617
7406,460,617
7413,521,617
7420,623,617
7427,693,617
7433,760,617
7440,713,617
7446,576,617
7453,465,617
7460,416,617
7467,425,617
7473,455,618
7479,471,618
7486,477,618
7493,480,617
7500,484,618
7505,487,617
7514,490,618
7520,493,618
7526,495,618
7532,497,618
7540,499,618
7546,501,618
7554,503,618
7559,506,618
7566,508,618
7573,511,618
7580,513,618
7586,516,618
7593,518,618
7601,523,618
7606,526,618
7613,532,618
7620,534,618
7626,538,618
7633,541,618
7641,544,618
7646,544,618
7653,542,618
7660,537,618
7666,530,618
7673,522,618
7681,512,618
7686,504,618
7693,496,618
7700,489,618
7706,484,618
7713,481,618
7720,483,618
7727,482,618
7733,480,618
7740,478,618
7746,478,618
7752,481,618
7760,484,618
7767,485,618
7773,487,618
7779,491,618
7786,494,618
7793,493,618
7800,493,618
7805,495,618
7814,499,618
7820,501,618
7826,504,618
7832,506,618
7840,506,618
7846,507,618
7854,506,618
7860,504,618
7866,504,618
7873,505,618
7880,506,618
7886,508,618
7894,507,618
7900,506,619
7906,507,619
7913,511,619
7920,513,618
7926,515,619
7933,515,619
7941,520,619
7946,525,619
7953,531,619
7960,531,619
7966,528,619
7973,519,619
7981,510,619
7986,503,619
7993,499,619
8000,497,619
8006,495,619
8013,495,619
8020,494,619
8026,495,619
8033,497,619
8040,498,619
8046,498,619
8052,499,619
8060,501,619
8067,499,619
8073,485,619
8079,464,619
8086,464,619
8093,520,619
8100,618,619
8105,686,619
8113,752,619
8120,708,619
8126,575,619
8132,466,619
8140,415,619
8146,421,619
8154,457,619
8160,472,619
8166,477,619
8173,480,619
8180,484,619
8186,488,619
8194,492,619
8200,494,619
8206,495,619
8213,498,619
8220,500,619
8226,501,619
8233,503,619
8241,505,619
8246,507,619
8253,511,620
8260,514,619
8266,516,619
8272,519,619
8281,524,619
8286,526,620
8293,531,619
8299,535,620
8306,537,619
8313,539,619
8321,540,620
8326,539,619
8333,537,620
8340,533,620
8346,528,620
8353,519,620
8360,510,620
8367,502,620
8373,494,620
8380,487,620
8386,482,620
8393,477,620
8400,477,620
8407,478,620
8413,478,620
8420,480,620
8426,483,620
8433,485,620
8440,487,620
8446,489,620
8454,490,620
8460,491,620
8466,491,620
8473,493,620
8480,496,620
8486,498,620
8493,497,620
8500,498,620
8506,501,620
8513,503,620
8519,505,620
8526,506,620
8534,506,620
8540,506,620
8546,505,620
8553,506,620
8560,506,620
8566,508,620
8573,507,620
8581,506,620
8586,506,620
8593,509,620
8600,512,620
8606,513,620
8613,514,620
8621,520,620
8626,525,620
8633,531,620
8640,532,620
8646,525,621
8653,514,620
8659,508,620
8667,503,621
8673,497,620
8680,494,620
8685,494,621
8693,495,620
8700,494,620
8707,495,621
8712,495,621
8720,496,621
8726,498,621
8733,500,621
8739,500,621
8747,496,621
8753,480,621
8760,463,621
8766,481,620
8773,547,621
8780,635,621
8786,703,621
8794,743,621
8800,681,621
8806,554,621
8813,448,621
8820,415,621
8826,420,621
8834,451,621
8840,469,621
8846,476,621
8852,478,621
8860,484,621
8866,487,621
8873,490,621
8879,491,621
8886,493,621
8893,497,621
8900,500,621
8905,502,621
8913,503,621
8921,506,621
8926,508,621
8932,512,621
8940,514,621
8946,515,621
8953,520,621
8961,525,621
8966,527,621
8973,531,621
8980,534,621
8986,536,621
8993,539,621
9000,541,621
9007,539,621
9013,537,621
9020,534,621
9026,527,621
9033,516,621
9040,507,621
9047,502,621
9053,496,621
9060,491,621
9066,486,621
9072,483,621
9080,483,621
9086,483,621
9094,483,621
9099,484,621
9106,484,622
9113,485,621
9120,487,622
9125,489,622
9134,491,622
9140,492,621
9146,493,622
9153,497,622
9160,500,621
9166,502,622
9174,503,622
9180,503,622
9186,504,622
9193,506,622
9200,508,621
9206,508,622
9213,508,622
9221,508,622
9226,509,622
9233,508,622
9240,509,622
9246,509,622
9253,510,622
9261,512,622
9266,513,622
9273,514,622
9280,516,622
9286,521,622
9292,528,622
9300,533,622
9307,532,622
9313,524,622
9319,516,622
9326,509,622
9333,502,622
9340,498,622
9347,498,622
9353,496,622
9360,494,622
9366,496,622
9373,498,622
9380,499,622
9387,500,622
9393,500,622
9400,502,622
9406,502,622
9413,498,622
9420,480,622
9426,465,622
9434,480,622
9440,545,622
9446,630,622
9453,716,622
9459,758,622
9466,690,622
9474,539,622
9480,449,622
9485,420,622
9493,425,622
9500,458,622
9506,472,622
9512,478,622
9521,481,622
9526,484,622
9533,486,622
9540,488,622
9546,492,622
9553,495,622
9561,497,622
9566,500,622
9573,503,622
9580,505,622
9586,507,622
9593,510,622
9601,513,622
9606,515,622
9613,518,622
9620,523,622
9626,524,622
9633,526,622
9640,531,622
9647,538,622
9653,541,622
9660,538,623
9666,538,622
9673,539,623
9679,538,622
9687,532,622
9693,526,622
9700,517,622
9705,510,623
9713,500,623
9720,493,623
9726,488,622
9732,486,622
9740,483,622
9746,483,623
9753,483,622
9760,484,623
9766,483,623
9774,484,622
9780,486,623
9786,487,622
9793,488,623
9800,491,623
9806,494,623
9814,494,623
9820,496,623
9826,499,623
9833,501,623
9840,503,623
9846,504,622
9853,505,623
9861,504,623
9866,506,623
9873,508,623
9880,508,623
9886,507,623
9893,507,623
9900,508,623
9906,507,623
9913,505,623
9920,504,623
9925,505,623
9933,506,623
9940,506,623
9947,506,623
9952,506,623
9960,510,623
9966,513,623
9973,515,623
9979,516,623
9987,523,623
9993,530,623
10000,533,623
10006,530,623
10013,522,623
10020,513,623
10027,507,623
10033,500,623
10040,496,623
10046,494,623
10053,495,623
10060,495,623
10066,494,623
10074,496,623
10080,496,623
10086,497,623
10092,498,623
10100,498,623
10106,500,623
10114,494,623
10119,478,623
10126,460,623
10133,474,623
10140,558,623
10146,645,623
10153,726,623
10161,759,623
10166,683,624
10173,526,624
10180,442,624
10186,413,624
10193,433,624
10201,464,624
10206,472,624
10213,476,624
10220,479,624
10226,484,624
10233,486,624
10241,487,624
10246,488,624
10253,493,624
10260,497,624
10266,500,624
10273,503,624
10280,505,624
10286,505,624
10293,508,624
10300,511,624
10306,514,624
10312,517,624
10320,520,624
10327,523,624
10333,526,624
10339,531,624
10346,536,624
10353,540,624
10360,541,624
10366,539,624
10373,538,624
10380,537,624
10386,533,624
10393,525,624
10400,516,624
10406,508,624
10414,500,624
10420,493,624
10426,489,624
10433,483,624
10440,480,624
10446,480,624
10454,481,624
10460,480,624
10466,481,624
10473,484,624
10479,482,624
10486,484,624
10493,488,624
10501,490,624
10505,493,624
10513,494,624
10520,494,624
10526,496,624
10532,497,624
10541,497,624
10546,499,624
10553,502,624
10560,504,624
10566,505,624
10573,506,624
10580,506,624
10587,506,624
10593,506,624
10600,506,624
10606,504,624
10613,504,624
10620,503,624
10627,503,624
10633,504,624
10640,505,624
10646,504,624
10653,505,624
10660,506,625
10667,508,624
10673,511,624
10680,513,625
10686,513,624
10693,519,625
10699,528,625
10706,531,625
10714,530,625
10720,523,625
10725,516,625
10733,510,625
10740,501,625
10746,496,625
10753,495,625
10760,495,625
10766,495,625
10773,495,625
10780,495,625
10786,496,625
10793,497,625
10801,498,625
10806,498,625
10813,499,625
10820,499,625
10826,487,625
10833,463,625
10841,463,625
10846,502,625
10853,600,625
10860,694,625
10866,754,625
10873,724,625
10881,572,625
10886,477,625
10893,423,625
10900,421,625
10906,448,625
10913,469,625
10919,476,625
10927,480,625
10933,482,625
10940,486,625
10945,490,625
10953,495,625
10960,496,625
10967,497,625
10972,498,625
10980,500,625
10986,504,625
10993,505,626
11000,508,625
11006,509,625
11014,513,625
11020,514,625
11026,518,626
11033,521,626
11040,527,625
11046,529,625
11054,531,625
11060,534,625
11066,538,626
11073,539,626
11080,540,626
11086,539,626
11094,535,626
11100,528,626
11106,521,626
11112,513,625
11120,504,626
11126,496,626
11133,489,626
11140,484,626
11146,481,626
11153,479,626
11160,479,626
11165,479,625
11173,479,625
11181,482,625
11186,486,626
11192,489,626
11200,487,626
11206,487,625
11213,491,626
11220,492,626
11226,494,626
11233,496,626
11240,498,626
11246,500,625
11253,501,625
11260,503,626
11267,503,626
11273,503,626
11280,503,626
11286,505,626
11293,507,626
11300,505,626
11307,504,626
11313,503,626
11320,505,626
11326,506,626
11332,505,626
11340,506,626
11346,505,626
11354,507,626
11359,508,626
11366,507,626
11373,504,626
11380,504,626
11386,505,626
11394,505,626
11400,505,626
11406,505,626
11413,507,626
11420,510,626
11426,513,626
11433,516,626
11441,517,626
11446,520,626
11453,527,626
11460,533,626
11466,533,626
11473,526,626
11481,516,626
11486,513,626
11493,505,626
11500,499,626
11506,496,626
11513,497,626
11521,497,626
11526,496,626
11533,500,626
11540,500,626
11546,497,626
11552,496,626
11560,496,626
11567,498,626
11573,496,626
11579,484,626
11586,463,626
11593,465,626
11600,536,626
11607,623,626
11613,689,626
11620,761,626
11626,715,626
11633,563,626
11640,462,626
11646,420,626
11654,427,626
11660,454,626
11666,470,626
11673,477,626
11680,478,626
11686,482,626
11694,484,626
11700,487,626
11706,490,626
11713,494,626
11719,497,626
11726,499,626
11734,502,626
11740,505,626
11745,507,626
11753,510,627
11760,515,626
11766,514,626
11772,515,627
11781,518,627
11786,521,627
11793,524,626
11800,528,627
11806,531,626
11813,536,627
11821,538,627
11826,542,627
11833,543,627
11840,540,627
11846,536,627
11853,532,627
11860,523,627
11867,512,627
11873,505,627
11880,497,627
11886,490,627
11893,484,627
11900,480,627
11907,479,627
11913,477,627
11920,478,627
11926,480,627
11933,481,627
11939,482,627
11947,484,627
11953,487,627
11960,489,627
11965,491,627
11973,496,627
11980,497,627
11986,494,627
11993,493,627
12000,496,627
12006,499,627
12013,501,627
12020,502,627
12026,503,627
12034,504,628
12040,506,627
12046,506,628
12053,507,628
12060,507,628
12066,506,628
12073,505,628
12080,505,628
12086,505,628
12093,504,628
12100,504,628
12106,504,628
12113,506,628
12121,506,628
12126,506,628
12132,506,628
12140,507,628
12146,509,628
12153,507,628
12160,507,628
12166,508,628
12173,507,628
12180,507,628
12185,506,628
12193,508,628
12200,509,628
12207,509,628
12213,510,628
12220,514,628
12226,517,628
12233,515,628
12240,519,628
12247,524,628
12253,530,628
12260,536,628
12266,532,628
12273,524,628
12280,516,628
12286,509,628
12294,500,628
12300,498,628
12306,497,628
12313,496,628
12320,496,628
12325,498,628
12334,499,628
12340,499,628
12346,499,628
12352,500,628
12360,503,628
12366,501,628
12374,486,628
12380,466,628
12386,463,628
12393,508,628
12400,604,628
12406,681,628
12413,751,628
12421,718,628
12426,609,628
12433,476,628
12440,425,628
12446,418,628
12453,449,628
12461,470,628
12466,475,628
12473,478,628
12480,486,628
12486,488,628
12492,488,628
12500,489,628
12507,492,628
12513,496,628
12519,500,628
12526,503,628
12533,504,628
12540,505,628
12547,509,628
12553,512,628
12560,513,628
12566,515,628
12573,519,628
12580,524,628
12587,525,628
12593,527,628
12600,531,628
12606,535,628
12613,538,628
12620,540,628
12626,542,628
12634,541,628
12640,537,628
12646,532,628
12653,525,628
12660,517,628
12666,508,628
12674,500,628
12680,493,628
12686,488,628
12693,483,628
12700,480,628
12706,477,628
12712,476,628
12721,478,628
12726,480,628
12733,483,629
12739,484,628
12746,485,629
12753,488,629
12761,491,628
12766,492,629
12773,494,629
12780,497,629
12786,500,628
12793,499,628
12801,500,628
12806,501,629
12813,503,628
12820,504,629
12826,504,629
12833,504,629
12840,504,629
12847,506,629
12853,507,629
12860,506,629
12866,504,629
12873,505,629
12879,505,629
12887,503,629
12893,504,629
12900,505,629
12905,505,629
12913,506,629
12920,507,629
12926,507,629
12932,506,629
12940,507,629
12946,508,629
12953,507,629
12960,505,629
12966,504,629
12974,506,629
12980,510,629
12986,514,629
12993,515,629
13000,517,629
13006,523,629
13014,530,629
13020,532,629
13026,531,629
13033,524,629
13040,515,629
13046,511,629
13053,505,629
13061,505,629
13066,502,629
13073,495,629
13080,492,629
13086,496,629
13093,497,629
13100,497,629
13106,498,629
13113,499,629
13120,500,629
13125,500,629
13133,493,629
13140,472,629
13147,466,629
13152,492,629
13160,580,629
13166,655,629
13173,730,629
13180,732,629
13187,640,629
13193,522,630
13200,436,630
13206,414,630
13213,425,629
13220,456,630
13227,470,629
13233,476,630
13240,482,630
13246,486,630
13253,490,630
13260,493,630
13266,496,630
13274,497,630
13280,499,630
13286,501,630
13292,504,629
13300,507,630
13306,510,630
13314,512,630
13319,513,630
13326,513,630
13333,517,630
13340,521,630
13345,525,630
13353,529,630
13361,532,630
13366,534,630
13373,538,630
13380,541,630
13386,542,630
13393,542,630
13401,538,630
13406,533,630
13413,527,630
13420,521,630
13426,512,630
13433,503,630
13441,494,630
13446,489,630
13453,484,630
13460,481,630
13466,480,630
13473,480,630
13480,479,630
13487,480,630
13493,482,630
13500,484,630
13506,486,630
13512,490,630
13520,493,630
13527,494,630
13533,494,630
13539,495,630
13546,496,630
13553,498,630
13560,500,630
13566,502,630
13573,503,630
13580,503,630
13586,506,630
13593,508,630
13600,509,630
13606,509,630
13614,508,630
13620,509,630
13626,509,630
13633,508,630
13640,507,630
13646,507,630
13654,507,630
13660,508,630
13666,508,630
13673,508,630
13679,509,630
13686,508,630
13693,509,630
13701,514,630
13705,516,630
13713,517,630
13720,515,630
13726,519,630
13732,528,630
13741,533,630
13746,534,630
13753,528,630
13759,519,631
13766,510,631
13773,503,631
13780,501,630
13785,500,631
13793,500,631
13800,496,630
13806,495,631
13812,498,631
13820,500,631
13827,500,631
13833,500,631
13840,500,631
13846,502,631
13853,497,631
13860,483,631
13867,466,631
13873,465,631
13880,517,631
13886,602,631
13893,692,631
13900,756,631
13906,731,631
13914,583,631
13920,476,631
13926,431,631
13933,417,631
13940,445,631
13946,465,631
13954,473,631
13960,477,631
13966,481,631
13973,484,631
13980,487,631
13986,489,631
13993,494,631
14001,499,631
14006,501,631
14013,503,631
14020,503,631
14026,504,631
14032,508,631
14041,512,631
14046,513,631
14053,516,631
14059,517,631
14066,521,631
14073,525,631
14081,530,631
14085,532,631
14093,537,631
14100,540,631
14106,543,631
14112,543,631
14120,542,631
14127,541,631
14133,532,631
14139,520,631
14146,511,631
14153,503,630
14160,495,630
14167,490,630
14173,486,630
14180,482,630
14186,482,630
14193,483,630
14200,479,630
14206,478,630
14214,482,630
14220,484,630
14226,486,630
14233,487,630
14240,489,630
14246,491,630
14254,492,630
14260,496,630
14266,499,630
14273,499,631
14280,499,631
14286,500,631
14294,504,631
14300,505,631
14306,503,631
14313,505,631
14320,510,631
14326,511,631
14332,506,631
14341,505,631
14346,507,631
14353,506,631
14359,505,631
14366,505,631
14373,505,631
14381,505,631
14385,508,631
14393,510,631
14400,510,631
14406,509,631
14412,507,631
14420,506,631
14427,506,632
14433,505,632
14439,505,631
14446,506,632
14453,510,632
14460,515,632
14467,515,632
14473,517,632
14480,523,632
14486,530,632
14493,534,632
14500,533,632
14507,527,632
14513,520,632
14520,513,632
14526,506,632
14533,497,632
14540,493,632
14546,494,632
14554,493,632
14560,494,632
14566,495,632
14573,496,632
14580,497,632
14586,498,632
14594,502,632
14600,500,632
14606,494,632
14613,473,632
14620,461,632
14626,487,632
14632,565,632
14641,664,632
14646,733,632
14653,758,632
14659,654,632
14666,522,632
14673,433,632
14681,415,632
14685,429,632
14693,460,632
14700,471,632
14706,478,632
14712,483,632
14721,485,632
14726,486,632
14733,487,632
14739,491,632
14746,494,632
14753,497,632
14760,499,632
14767,501,632
14773,505,632
14780,509,632
14786,510,632
14792,510,632
14800,514,632
14807,519,632
14813,521,632
14820,526,632
14826,532,632
14833,535,632
14840,535,632
14846,538,632
14853,540,632
14860,542,632
14866,541,632
14873,539,632
14880,537,632
14886,532,632
14894,522,632
14900,510,632
14906,502,632
14913,498,632
14920,490,632
14926,481,632
14934,476,632
14940,478,632
14946,478,632
14953,476,632
14960,478,632
14966,481,632
14973,483,632
14981,486,632
14986,486,632
14993,490,633
15000,492,632
15006,495,632
15012,497,632
15021,497,632
15026,496,632
15033,499,633
15039,500,632
15046,502,633
15053,505,633
15060,505,633
15065,504,633
15073,505,633
15080,504,632
15086,506,633
15092,507,633
15100,507,633
15107,507,633
15113,506,633
15119,505,632
15126,507,633
15133,506,633
15140,505,633
15147,504,633
15153,505,633
15160,504,633
15166,506,633
15173,508,633
15180,509,633
15186,510,633
15194,511,633
15200,514,633
15206,516,633
15213,513,633
15220,516,633
15226,524,633
15234,529,633
15240,532,633
15246,529,633
15253,520,633
15260,513,633
15266,507,633
15273,503,633
15281,498,633
15286,497,633
15293,496,633
15300,495,633
15306,495,633
15312,495,633
15321,496,633
15326,497,633
15333,500,633
15339,502,633
15346,500,633
15353,487,633
15361,460,633
15365,457,633
15373,508,633
15380,609,633
15386,692,633
15392,761,633
15400,713,633
15407,579,633
15413,471,633
15419,423,633
15426,419,633
15433,451,633
15440,471,633
15447,477,633
15453,479,633
15460,480,633
15466,483,633
15473,488,633
15480,492,633
15486,494,633
15494,495,633
15500,499,633
15506,503,633
15513,504,633
15520,505,633
15526,507,633
15534,509,633
15540,516,633
15546,519,633
15553,518,633
15560,517,633
15566,523,633
15574,529,633
15580,533,633
15586,536,633
15593,541,633
15600,546,633
15606,546,633
15612,543,633
15621,539,633
15626,538,633
15633,527,633
15639,512,633
15646,502,633
15653,492,633
15661,486,633
15665,483,633
15673,479,633
15680,479,634
15686,478,634
15692,480,633
15700,487,634
15707,483,633
15713,477,634
15719,481,634
15726,486,634
15733,485,634
15740,488,634
15747,491,634
15753,493,634
15760,494,634
15766,495,634
15772,496,634
15780,500,634
15787,502,634
15793,504,634
15800,504,634
15806,506,634
15813,505,634
15820,505,634
15826,509,634
15834,517,634
15840,509,634
15846,502,634
15853,501,634
15860,503,634
15866,504,634
15874,505,634
15880,505,634
15886,506,634
15893,508,634
15900,509,634
15906,506,634
15913,505,634
15921,506,634
15926,506,634
15933,505,634
15940,507,634
15946,508,634
15953,506,634
15961,510,634
15966,516,634
15973,521,634
15980,514,634
15986,516,634
15992,527,634
16001,532,634
16006,531,634
16013,523,634
16019,517,634
16026,512,634
16033,504,634
16040,499,634
16046,498,634
16053,498,634
16060,500,634
16066,499,634
16072,497,634
16080,495,634
16087,498,634
16093,498,634
16099,496,634
16106,495,634
16113,496,634
16120,478,634
16126,459,634
16133,466,634
16140,532,634
16146,622,634
16153,717,634
16160,761,634
16166,695,634
16174,545,634
16180,450,634
16186,417,634
16193,426,634
16200,457,634
16206,473,634
16214,480,634
16220,482,634
16226,483,634
16233,485,634
16240,491,634
16246,494,634
16253,496,634
16261,499,634
16266,501,634
16273,504,634
16280,506,634
16286,509,634
16292,513,634
16301,514,634
16306,511,634
16313,513,634
16319,517,634
16326,524,634
16333,531,634
16340,535,634
16345,536,634
16353,541,634
16360,544,634
16366,544,634
16372,544,634
16380,543,634
16387,540,634
16393,534,634
16399,524,634
16406,515,634
16413,505,634
16420,495,634
16427,488,634
16433,482,634
16440,481,634
16446,479,634
16453,478,634
16460,477,634
16466,477,634
16474,482,634
16480,483,634
16486,485,634
16493,489,634
16500,491,634
16506,489,634
16514,488,635
16520,492,635
16526,494,634
16533,496,635
16540,498,634
16546,501,634
16553,502,635
16561,502,634
16566,502,635
16573,504,635
16580,505,635
16586,507,635
16593,508,635
16601,505,635
16606,504,635
16613,504,635
16619,505,635
16626,506,635
16633,507,635
16641,507,635
16645,506,635
16653,506,635
16660,508,635
16666,506,635
16672,506,635
16680,507,635
16687,506,635
16693,506,635
16699,509,635
16706,511,635
16713,508,635
16720,514,635
16726,515,635
16733,519,635
16740,527,635
16746,530,635
16752,533,635
16760,527,635
16766,519,635
16774,515,635
16780,507,635
16786,503,635
16793,499,635
16800,495,635
16806,494,635
16814,492,635
16820,495,635
16826,495,635
16833,495,635
16840,500,635
16846,500,635
16854,498,635
16860,492,635
16866,480,635
16873,462,635
16880,473,635
16886,537,635
16893,626,635
16901,720,635
16906,763,635
16913,688,635
16920,553,635
16926,456,635
16933,413,635
16941,435,635
16946,456,635
16953,474,635
16960,480,635
16966,481,635
16972,482,635
16980,486,635
16987,488,635
16993,492,635
16999,493,635
17006,494,635
17013,497,635
17020,500,635
17026,502,635
17033,505,635
17040,508,635
17046,510,635
17052,513,635
17060,519,635
17067,522,635
17073,525,635
17080,528,635
17086,532,635
17093,536,635
17100,540,635
17106,542,635
17114,543,635
17120,545,635
17126,543,636
17133,540,636
17140,533,636
17146,524,636
17154,512,636
17160,504,636
17166,498,636
17173,490,636
17180,482,636
17186,480,636
17193,478,636
17201,476,636
17206,475,636
17213,477,636
17220,479,636
17226,481,636
17233,485,636
17241,486,636
17246,487,636
17253,489,636
17260,493,636
17266,493,636
17272,493,636
17281,494,636
17286,497,636
17293,499,636
17299,500,636
17306,500,636
17313,502,636
17320,503,636
17326,504,636
17333,504,636
17340,504,636
17346,505,636
17352,504,636
17360,505,636
17367,506,636
17373,507,636
17380,507,636
17386,506,636
17393,506,636
17400,507,636
17406,507,636
17413,507,636
17420,507,636
17426,509,636
17433,511,636
17440,511,636
17446,514,636
17454,520,636
17460,527,636
17466,532,636
17473,531,636
17480,520,636
17486,516,636
17494,510,636
17500,503,636
17506,496,636
17513,494,636
17520,493,636
17526,493,636
17533,496,636
17541,496,636
17546,497,636
17553,497,636
17560,497,636
17566,500,636
17572,501,636
17581,492,636
17586,475,636
17593,462,636
17599,487,636
17606,562,636
17613,649,636
17620,730,636
17625,749,636
17633,654,636
17640,515,636
17646,437,636
17652,411,636
17660,430,636
17667,459,636
17673,474,636
17680,480,636
17686,483,636
17693,486,636
17700,490,636
17707,494,636
17713,496,636
17720,500,636
17726,502,636
17733,505,636
17740,508,636
17746,509,636
17754,507,636
17760,508,636
17766,513,636
17773,515,637
17780,514,636
17786,517,637
17794,525,637
17800,527,637
17806,530,637
17813,534,637
17820,537,637
17826,540,637
17833,542,637
17841,540,637
17846,538,637
17853,534,637
17860,525,637
17866,516,637
17872,507,637
17881,498,637
17886,492,637
17893,485,637
17899,480,637
17906,477,637
17913,476,637
17921,477,637
17925,478,637
17933,480,637
17940,481,637
17946,483,637
17952,487,637
17960,488,637
17967,487,637
17973,487,637
17979,490,637
17986,494,637
17993,497,636
18000,499,637
18007,499,637
18013,501,637
18020,503,637
18026,503,637
18033,504,637
18040,504,637
18046,505,637
18054,507,637
18060,507,637
18066,506,637
18073,506,637
18080,508,637
18086,508,637
18094,505,637
18100,505,637
18106,507,637
18113,510,637
18120,510,637
18126,511,637
18134,517,637
18140,525,637
18146,530,637
18153,531,636
18160,522,637
18166,515,637
18172,509,636
18181,502,636
18186,498,636
18193,497,636
18199,497,636
18206,496,637
18213,496,637
18221,499,637
18225,501,637
18233,500,637
18240,500,637
18246,501,637
18252,502,637
18260,499,637
18267,484,637
18273,468,637
18279,473,637
18286,529,637
18293,621,637
18300,698,637
18307,746,637
18313,715,637
18320,575,637
18326,476,637
18333,425,637
18340,419,637
18347,441,637
18353,463,637
18360,476,637
18366,479,637
18373,483,637
18380,487,637
18386,491,637
18394,493,637
18400,495,637
18406,499,637
18413,503,637
18420,505,637
18426,505,637
18434,507,637
18440,509,637
18446,511,637
18453,513,637
18460,516,637
18466,520,637
18473,524,637
18481,527,637
18486,530,637
18493,535,637
18500,538,637
18506,540,637
18513,540,637
18521,540,637
18526,539,637
18533,534,637
18540,527,637
18546,521,637
18552,513,637
18561,505,637
18566,498,637
18573,491,637
18579,488,637
18586,485,637
18593,484,637
18600,482,637
18606,482,637
18613,483,637
18620,485,637
18626,486,637
18632,486,637
18640,490,637
18647,492,637
18653,492,637
18660,494,637
18666,495,637
18673,497,637
18680,499,637
18686,501,637
18693,502,637
18700,504,637
18706,506,638
18713,507,638
18720,506,637
18726,508,637
18734,509,638
18740,509,638
18746,509,638
18753,509,638
18760,508,638
18766,508,637
18774,508,637
18780,508,637
18786,509,637
18793,511,637
18800,513,637
18806,515,638
18813,513,637
18821,518,638
18826,524,638
18833,529,638
18840,533,638
18846,530,637
18852,521,638
18861,512,638
18866,505,637
18873,500,638
18879,497,638
18886,495,638
18893,495,638
18900,496,637
18905,496,638
18913,496,637
18920,496,637
18926,497,637
18932,499,638
18940,500,638
18947,500,637
18953,493,637
18959,470,638
18966,459,638
18973,499,637
18980,598,638
18987,679,638
18993,745,638
19000,750,638
19006,633,638
19013,488,638
19020,429,638
19026,416,638
19034,443,638
19040,466,638
19046,473,638
19053,478,638
19060,482,638
19066,483,638
19074,486,638
19080,491,638
19086,494,638
19093,495,638
19100,498,638
19106,502,638
19113,503,638
19121,506,638
19126,508,638
19133,511,638
19140,511,638
19146,515,638
19152,519,638
19161,525,638
19166,527,638
19173,528,638
19179,531,638
19186,535,638
19193,539,638
19201,541,638
19205,542,638
19213,542,638
19220,539,638
19226,534,638
19232,527,638
19240,516,638
19247,508,638
19253,500,638
19259,494,638
19266,488,638
19273,485,638
19280,481,638
19287,479,638
19293,480,638
19300,482,638
19306,483,638
19313,484,638
19320,486,638
19326,488,638
19334,490,638
19340,491,638
19346,492,638
19353,493,638
19360,495,638
19366,497,638
19374,500,638
19380,501,638
19386,503,638
19393,504,638
19400,504,638
19406,505,638
19414,506,638
19420,507,638
19426,507,638
19433,507,638
19440,507,638
19446,507,638
19453,507,638
19461,505,638
19466,505,638
19473,506,638
19479,506,638
19486,505,638
19493,505,638
19501,509,638
19506,512,638
19513,515,638
19520,513,638
19526,518,638
19532,527,638
19540,533,638
19547,532,638
19553,525,639
19559,517,638
19566,510,639
19573,502,639
19580,497,638
19586,494,639
19593,492,638
19600,492,639
19606,493,639
19612,494,639
19620,495,638
19627,496,638
19633,498,638
19640,500,638
19646,500,638
19653,500,638
19660,484,638
19666,462,638
19674,462,638
19680,509,638
19686,599,639
19693,695,638
19700,762,638
19706,732,639
19714,579,639
19720,467,638
19726,424,638
19733,418,638
19740,450,639
19746,469,638
19753,474,639
19761,479,638
19766,482,638
19773,486,638
19779,490,638
19786,492,638
19793,493,639
19801,495,638
19806,497,638
19813,500,638
19820,502,638
19826,505,638
19832,508,639
19841,511,638
19846,513,639
19853,516,638
19859,517,639
19866,519,639
19873,524,639
19880,529,639
19886,532,639
19893,535,639
19900,539,639
19906,541,639
19912,542,639
19920,540,639
19927,537,639
19933,533,639
19940,526,639
19946,517,639
19953,505,639
19960,497,639
19966,491,639
19973,485,639
19980,480,639
19986,480,639
19993,479,639
20000,479,639
20006,480,639
20014,482,639
20020,484,639
20026,487,639
20033,489,639
20040,491,639
20046,491,639
20054,492,639
20060,494,639
20066,496,639
20073,497,639
20080,498,639
20086,499,639
20093,501,639
20101,505,639
20106,505,639
20113,504,639
20120,505,639
20126,507,639
20132,507,639
20141,506,639
20146,506,639
20153,504,639
20159,504,639
20166,503,639
20173,505,639
20180,505,639
20185,505,639
20193,505,639
20200,506,639
20206,506,639
20212,507,639
20220,506,639
20227,506,639
20233,507,639
20240,508,639
20246,512,639
20253,515,639
20260,513,639
20267,514,639
20273,518,639
20280,527,639
20286,530,639
20293,532,639
20300,526,639
20306,518,639
20314,511,639
20320,503,639
20326,500,639
20333,497,639
20340,495,639
20346,495,639
20354,496,639
20360,496,639
20366,497,639
20373,498,639
20380,499,639
20386,500,639
20393,500,639
20401,496,639
20406,485,639
20413,463,639
20420,473,639
20426,536,639
20432,623,639
20441,715,639
20446,761,639
20453,699,639
20459,564,639
20466,461,639
20473,415,639
20481,427,639
20485,448,639
20493,469,639
20500,477,639
20506,479,639
20512,482,639
20520,486,639
20527,489,639
20533,492,639
20539,494,639
20546,497,639
20553,501,639
20560,503,639
20567,505,639
20573,505,639
20580,506,639
20586,509,639
20593,512,639
20600,514,639
20606,517,639
20614,522,639
20620,525,640
20626,529,639
20633,533,639
20640,537,639
20646,539,639
20654,541,639
20660,547,640
20666,545,639
20673,536,639
20680,529,640
20686,523,640
20694,513,640
20700,504,639
20706,498,639
20713,491,640
20720,485,640
20726,481,640
20732,480,640
20741,479,639
20746,479,640
20753,480,640
20759,481,640
20766,486,640
20773,489,639
20781,487,640
20785,489,640
20793,490,640
20800,492,640
20806,495,640
20812,497,639
20820,498,640
20827,500,640
20833,502,640
20839,504,640
20846,504,640
20853,504,640
20860,506,640
20867,506,640
20873,506,640
20880,509,640
20886,506,640
20893,502,640
20900,503,640
20907,506,640
20913,505,640
20920,503,640
20926,504,640
20933,504,640
20940,503,640
20946,504,640
20954,505,640
20960,505,640
20966,508,640
20973,510,639
20980,506,640
20986,506,640
20994,507,640
21000,508,640
21006,506,640
21013,504,640
21020,506,640
21026,507,640
21033,508,640
21041,508,640
21046,509,640
21053,509,640
21060,509,640
21066,511,640
21073,517,640
21081,517,640
21086,517,640
21093,521,640
21100,526,640
21106,533,640
21112,533,640
21121,525,640
21126,521,640
21133,514,640
21139,505,640
21146,499,640
21153,499,640
21160,500,640
21166,500,640
21173,499,640
21180,499,640
21186,499,640
21192,500,640
21200,500,640
21207,504,640
21213,505,640
21220,490,640
21226,472,640
21233,463,640
21240,512,640
21246,597,640
21253,663,640
21260,747,640
21266,740,640
21273,602,640
21280,487,640
21286,430,640
21294,420,640
21300,446,640
21306,464,640
21313,474,640
21320,481,640
21326,484,640
21334,483,640
21340,485,640
21346,490,640
21353,492,640
21360,496,640
21366,499,640
21373,501,640
21381,504,640
21386,505,640
21393,507,640
21400,511,640
21406,514,640
21412,517,640
21421,518,640
21426,519,640
21433,523,640
21439,526,640
21446,532,640
21453,536,640
21460,539,640
21465,540,640
21473,542,640
21480,544,640
21486,541,640
21492,537,640
21500,529,640
21507,522,640
21513,513,640
21519,503,640
21526,493,640
21533,491,640
21540,488,640
21547,482,640
21553,478,640
21560,481,640
21566,482,640
21573,482,640
21580,485,640
21586,487,640
21594,489,640
21600,490,640
21606,490,640
21613,492,640
21620,495,640
21626,496,640
21634,496,640
21640,498,640
21646,502,640
21653,504,640
21660,503,640
21666,503,641
21673,505,640
21681,503,641
21686,504,640
21693,504,641
21700,506,640
21706,507,641
21712,506,641
21721,503,641
21726,503,641
21733,506,640
21739,507,640
21746,505,641
21753,505,641
21761,504,641
21765,505,641
21773,503,641
21780,504,641
21786,504,641
21792,502,641
21800,507,641
21807,508,641
21813,507,641
21819,506,641
21826,508,641
21833,513,641
21840,515,641
21847,512,641
21853,515,641
21860,523,641
21866,529,641
21873,531,641
21880,530,641
21886,523,641
21894,515,641
21900,508,641
21906,501,641
21913,498,641
21920,497,641
21926,496,641
21934,496,641
21940,497,641
21946,497,641
21953,496,641
21960,497,641
21966,501,641
21974,503,641
21980,501,641
21986,490,641
21993,466,641
22000,464,641
22006,511,641
22013,596,641
22021,688,641
22026,750,641
22033,728,641
22039,600,641
22046,483,641
22053,421,641
22061,424,641
22065,445,641
22073,469,641
22080,476,641
22086,480,641
22092,483,641
22100,486,641
22107,489,641
22113,493,641
22119,494,641
22126,497,641
22133,499,641
22140,502,641
22147,502,641
22153,503,641
22160,507,641
22166,509,641
22172,510,641
22180,515,641
22187,518,641
22193,522,641
22200,527,641
22206,530,641
22213,534,641
22220,539,641
22226,539,641
22234,539,641
22240,541,641
22246,540,641
22253,538,641
22260,532,641
22266,524,641
22274,516,641
22280,508,641
22286,500,641
22293,493,641
22300,487,641
22306,483,641
22313,480,641
22321,478,641
22326,478,641
22333,479,641
22340,480,641
22346,481,641
22353,482,641
22361,486,641
22366,487,641
22373,489,641
22380,490,641
22386,490,641
22392,492,641
22401,496,641
22406,497,641
22413,498,641
22419,500,641
22426,502,641
22433,504,641
22440,502,641
22446,504,641
22453,506,641
22460,503,642
22466,504,641
22472,507,641
22480,508,641
22487,505,641
22493,505,641
22500,503,641
22506,503,641
22513,504,641
22520,508,642
22526,511,641
22533,513,641
22540,513,641
22546,516,642
22553,522,641
22560,528,642
22566,530,641
22574,523,641
22580,515,641
22586,510,642
22593,501,641
22600,498,642
22606,497,642
22614,496,642
22620,493,641
22626,493,642
22633,495,642
22640,497,642
22646,497,642
22653,497,642
22661,499,641
22666,500,642
22673,497,642
22680,477,642
22686,458,642
22692,467,642
22701,540,642
22706,612,642
22713,704,642
22719,759,642
22726,698,642
22733,546,642
22740,442,642
22745,418,642
22753,426,642
22760,459,642
22766,472,642
22772,478,642
22780,480,642
22787,484,642
22793,487,642
22799,491,642
22806,494,642
22813,495,642
22820,499,642
22827,501,642
22833,505,642
22840,507,642
22846,508,642
22853,509,642
22860,512,642
22866,515,642
22874,518,642
22880,521,642
22886,522,642
22893,525,642
22900,532,642
22906,536,642
22914,539,642
22920,541,642
22926,542,642
22933,541,642
22940,541,642
22946,538,642
22953,529,642
22961,518,642
22966,514,642
22973,503,642
22980,494,642
22986,488,642
22993,484,642
23001,481,642
23006,480,642
23013,478,642
23019,478,642
23026,479,642
23033,481,642
23041,481,642
23045,481,642
23053,484,642
23060,486,642
23066,488,642
23072,490,642
23080,492,642
23087,494,642
23093,496,642
23099,497,642
23106,498,642
23113,500,642
23120,502,642
23127,504,642
23133,504,642
23140,504,642
23146,504,642
23152,504,642
23160,503,642
23166,502,642
23174,503,642
23180,504,642
23186,505,642
23193,507,642
23200,510,642
23206,511,642
23214,512,642
23220,515,642
23226,521,642
23233,526,642
23240,530,642
23246,525,642
23254,516,642
23260,510,642
23266,502,642
23273,497,642
23280,494,642
23286,492,642
23293,493,642
23301,493,642
23306,493,642
23313,495,642
23320,497,642
23326,498,642
23333,498,642
23341,499,642
23346,499,642
23353,488,642
23360,466,642
23366,464,642
23372,506,642
23380,600,642
23387,677,642
23393,747,642
23399,732,642
23406,609,642
23413,476,642
23420,419,642
23426,414,642
23433,440,642
23440,466,642
23446,475,642
23452,480,642
23460,483,642
23467,487,642
23473,489,642
23480,492,642
23486,494,642
23493,497,642
23500,500,642
23506,502,642
23514,503,642
23520,505,642
23526,507,642
23533,510,642
23540,513,642
23546,516,642
23554,519,642
23560,523,642
23566,526,642
23573,528,642
23580,533,642
23586,535,642
23593,537,642
23601,540,642
23606,540,642
23613,539,642
23620,536,643
23626,531,642
23633,523,642
23641,513,642
23646,508,642
23653,500,642
23660,492,642
23666,488,642
23672,483,642
23681,482,642
23686,482,642
23693,479,642
23699,480,642
23706,483,642
23713,485,642
23720,484,642
23726,485,642
23733,488,642
23740,490,643
23746,493,642
23752,494,642
23760,495,642
23767,498,642
23773,499,643
23779,500,642
23786,501,643
23793,503,642
23800,503,642
23806,502,642
23813,503,642
23820,504,642
23826,506,643
23833,505,642
23840,506,642
23846,510,642
23854,515,643
23860,513,643
23866,511,643
23873,516,643
23880,525,643
23886,530,642
23894,530,642
23900,521,643
23906,513,643
23913,506,643
23920,500,643
23926,497,643
23933,496,643
23941,496,643
23946,496,643
23953,496,643
23960,496,643
23966,499,643
23973,501,643
23981,499,643
23986,497,643
23993,498,643
23999,497,643
24006,484,643
24013,467,643
24020,477,643
24025,516,643
24033,611,643
24040,692,643
24046,745,643
24052,711,643
24060,570,643
24067,471,643
24073,425,643
24079,417,643
24086,440,643
24093,467,643
24100,479,643
24107,480,643
24113,483,643
24120,486,643
24126,489,643
24132,493,643
24140,497,643
24146,499,643
24154,502,643
24160,505,643
24166,506,643
24173,507,643
24180,511,643
24186,514,643
24194,516,643
24200,518,643
24206,520,643
24213,523,643
24220,527,643
24226,531,643
24233,533,643
24241,536,643
24246,537,643
24253,537,643
24260,539,643
24266,537,643
24273,531,643
24281,525,643
24286,521,643
24293,513,643
24300,506,643
24306,498,643
24313,491,643
24321,490,643
24326,488,643
24333,483,643
24340,483,643
24346,484,643
24352,484,643
24360,485,643
24367,487,643
24373,489,643
24379,491,643
24386,493,643
24393,496,643
24400,498,643
24406,498,643
24413,500,643
24420,500,643
24426,501,643
24432,503,643
24440,505,643
24446,507,643
24454,506,643
24460,505,643
24466,505,643
24473,507,643
24480,508,643
24486,508,643
24494,508,643
24500,510,643
24506,513,643
24513,517,643
24520,516,643
24526,516,643
24534,524,643
24540,531,643
24546,534,643
24553,529,643
24560,518,643
24566,511,643
24573,505,643
24581,496,643
24586,494,643
24593,493,643
24600,493,643
24606,492,643
24613,492,643
24621,495,643
24626,496,643
24633,498,643
24640,497,643
24646,496,643
24652,497,643
24660,493,643
24667,475,643
24673,458,643
24679,470,643
24686,534,643
24693,644,643
24700,743,643
24706,774,643
24713,700,643
24720,536,643
24726,444,643
24732,414,643
24740,436,643
24747,461,643
24753,470,643
24759,474,643
24766,478,643
24773,482,643
24780,486,643
24786,488,643
24794,490,643
24800,494,643
24806,497,643
24813,500,643
24820,501,643
24826,502,643
24834,503,643
24840,506,643
24846,511,643
24853,514,643
24860,516,643
24866,521,643
24873,524,643
24881,525,643
24886,527,643
24893,531,643
24900,534,643
24906,537,643
24913,539,644
24921,539,644
24926,538,643
24933,534,644
24940,528,644
24946,519,644
24953,512,643
24961,504,644
24966,497,644
24973,491,644
24979,489,644
24986,485,644
24993,482,644
25000,483,644
25006,484,644
25013,483,644
25020,483,644
25026,486,644
25032,488,644
25040,490,644
25047,493,644
25053,493,644
25059,496,644
25066,499,644
25073,501,644
25080,503,644
25085,504,644
25094,502,644
25100,500,644
25106,503,644
25112,506,644
25120,508,644
25126,508,644
25134,507,644
25140,507,644
25146,506,644
25153,508,644
25160,514,644
25166,516,644
25174,514,644
25180,515,644
25186,522,644
25193,530,644
25200,534,644
25206,527,644
25213,517,644
25221,508,644
25226,501,644
25233,497,644
25240,497,644
25246,494,644
25253,493,644
25261,494,644
25266,495,644
25273,496,644
25280,497,644
25286,497,644
25293,497,644
25300,501,644
25306,500,644
25313,491,644
25320,467,644
25326,459,644
25332,494,644
25340,593,644
25347,677,644
25353,752,644
25359,746,644
25366,626,644
25373,482,644
25380,419,644
25385,415,644
25393,443,644
25400,468,644
25406,475,644
25412,477,644
25420,480,644
25426,484,644
25434,488,644
25440,490,644
25446,494,644
25453,496,644
25460,497,644
25466,497,644
25474,502,644
25480,504,644
25486,507,644
25493,511,644
25500,512,644
25506,515,644
25513,518,644
25521,521,644
25526,523,644
25533,528,644
25540,534,644
25546,535,644
25553,536,644
25561,537,644
25566,538,644
25573,537,644
25580,535,644
25586,528,644
25593,520,644
25601,512,644
25606,507,644
25613,499,644
25620,493,644
25626,487,644
25632,485,644
25640,486,644
25647,483,644
25653,479,644
25659,480,644
25666,483,644
25673,485,644
25680,487,644
25686,488,644
25693,489,644
25700,493,644
25706,495,644
25712,496,644
25720,497,644
25726,499,644
25734,503,644
25740,504,644
25746,504,644
25753,504,644
25760,505,644
25766,507,644
25774,507,644
25780,507,644
25786,505,644
25793,505,644
25800,507,644
25806,508,644
25814,506,644
25820,507,644
25826,508,644
25833,512,644
25840,513,644
25846,518,644
25853,525,644
25861,531,644
25866,533,644
25873,528,644
25880,517,644
25886,509,644
25893,500,644
25901,497,644
25906,496,644
25913,495,644
25920,495,644
25926,494,644
25933,494,644
25940,495,644
25947,498,644
25953,500,644
25959,499,644
25966,500,644
25973,502,644
25980,489,644
25986,466,644
25993,455,644
26000,497,644
26006,582,644
26012,664,644
26020,748,644
26027,738,644
26033,618,644
26039,496,644
26046,430,644
26053,417,644
26060,448,644
26066,470,644
26074,478,645
26080,479,645
26086,480,644
26092,484,644
26100,489,645
26106,492,645
26114,495,645
26120,498,645
26126,499,645
26133,501,645
26140,505,645
26146,506,645
26153,508,645
26161,510,645
26166,512,645
26173,516,645
26180,519,645
26186,522,645
26193,524,645
26201,529,645
26206,531,645
26213,534,645
26220,538,645
26226,540,645
26233,540,645
26241,539,645
26246,536,645
26253,529,645
26260,523,645
26266,516,645
26273,506,645
26280,498,645
26286,492,645
26293,487,645
26300,483,645
26306,482,645
26312,482,645
26320,484,645
26327,484,645
26333,481,645
26339,484,645
26346,486,645
26353,488,645
26360,490,645
26365,493,645
26374,495,645
26380,497,645
26386,500,645
26392,500,645
26400,503,645
26406,504,645
26414,504,645
26420,502,645
26426,503,645
26433,504,645
26440,509,645
26446,508,645
26454,508,645
26460,507,645
26466,506,645
26473,508,645
26480,506,645
26486,508,645
26493,507,645
26501,505,645
26506,505,645
26513,512,645
26520,515,645
26526,514,645
26533,516,645
26541,524,645
26546,528,645
26553,530,645
26560,529,645
26566,522,645
26573,512,645
26580,500,645
26586,498,645
26593,498,645
26600,498,645
26606,498,645
26612,496,645
26620,497,645
26627,496,645
26633,494,645
26639,494,645
26646,496,645
26653,496,645
26660,498,645
26665,496,645
26673,478,645
26680,457,645
26686,476,645
26692,545,645
26700,643,645
26706,722,645
26714,750,645
26720,652,645
26726,541,645
26733,438,645
26740,413,645
26746,434,645
26754,458,645
26760,473,645
26766,478,645
26773,481,645
26780,484,645
26786,489,645
26793,492,645
26801,494,645
26806,496,645
26813,499,645
26820,500,645
26826,503,645
26833,505,645
26841,507,645
26846,508,645
26853,510,645
26860,510,645
26866,519,645
26873,522,645
26881,526,645
26886,528,645
26893,530,645
26900,535,645
26906,538,645
26913,538,645
26920,538,645
26927,538,645
26933,536,645
26939,534,645
26946,531,645
26953,515,645
26960,507,645
26966,501,645
26973,497,645
26980,491,645
26986,486,645
26992,482,645
27000,481,645
27006,482,645
27014,478,645
27019,480,645
27026,486,645
27033,490,645
27040,491,645
27046,490,645
27054,491,645
27060,496,645
27066,497,645
27072,496,645
27080,498,645
27086,503,645
27094,503,645
27100,503,645
27106,504,645
27113,504,645
27120,503,645
27126,503,645
27133,505,645
27141,505,645
27146,505,645
27153,507,645
27160,505,645
27166,505,645
27173,507,645
27181,506,645
27186,508,645
27193,512,645
27200,515,645
27206,514,645
27213,522,645
27220,530,645
27227,532,645
27233,528,645
27240,522,645
27246,513,645
27253,502,645
27260,495,645
27266,495,645
27273,491,645
27280,494,645
27286,498,645
27292,496,645
27300,496,645
27307,495,645
27313,493,645
27319,499,645
27326,501,645
27333,500,645
27340,493,645
27345,478,645
27354,457,645
27360,474,645
27366,547,645
27372,629,645
27380,719,645
27386,743,646
27394,631,645
27400,509,645
27406,443,646
27413,413,645
27420,440,645
27426,466,645
27433,474,645
27441,484,645
27446,484,645
27453,485,645
27460,492,645
27466,495,645
27473,495,646
27481,503,645
27486,504,645
27493,505,646
27500,508,645
27506,512,645
27513,510,646
27521,510,646
27526,514,645
27533,519,646
27540,521,646
27546,525,646
27553,526,646
27560,530,646
27567,534,646
27573,539,646
27580,540,646
27586,542,646
27593,543,646
27600,543,646
27607,540,646
27613,535,646
27619,528,646
27626,520,646
27633,511,646
27640,502,646
27645,497,646
27654,491,646
27660,487,646
27666,486,645
27672,487,646
27680,485,646
27686,483,646
27694,481,646
27699,480,645
27706,481,646
27713,487,646
27720,484,646
27725,486,646
27734,494,646
27740,497,646
27746,500,646
27752,499,646
27760,499,646
27766,501,646
27773,503,646
27781,503,645
27786,503,646
27793,504,645
27800,505,646
27806,505,646
27813,505,646
27821,505,645
27826,506,646
27833,507,646
27840,508,646
27846,509,646
27853,512,645
27860,516,646
27866,520,646
27873,529,646
27880,532,646
27886,524,646
27893,518,646
27900,512,646
27907,506,646
27913,500,646
27920,498,646
27926,496,646
27933,499,646
27940,500,646
27945,497,646
27953,499,646
27960,503,646
27966,500,646
27972,504,646
27980,505,646
27986,504,646
27994,491,646
27999,472,646
28006,465,646
28013,514,646
28020,601,646
28025,653,646
28034,722,646
28040,724,646
28046,619,646
28052,512,646
28060,434,646
28066,416,645
28073,431,646
28079,456,646
28086,473,646
28093,480,646
28100,484,646
28106,487,646
28113,487,646
28121,488,646
28126,492,646
28132,497,646
28140,498,646
28146,501,646
28153,502,646
28161,504,646
28166,504,646
28173,508,646
28180,509,646
28186,515,646
28193,519,646
28200,521,646
28207,526,646
28213,531,646
28220,529,646
28226,530,646
28233,534,646
28240,535,646
28247,534,646
28253,533,646
28260,531,646
28266,526,646
28273,522,646
28280,513,646
28286,505,646
28294,498,646
28300,495,646
28306,488,646
28313,487,646
28320,485,646
28325,485,646
28334,483,646
28340,482,646
28346,484,645
28352,487,646
28360,489,646
28366,489,646
28374,490,646
28379,493,646
28386,496,646
28393,496,646
28400,497,646
28405,499,646
28413,501,646
28421,502,646
28426,504,646
28432,503,646
28440,505,646
28446,505,646
28453,505,646
28460,504,646
28466,504,646
28473,506,646
28480,508,646
28486,506,646
28493,506,646
28500,511,646
28507,516,646
28513,515,646
28520,519,646
28526,524,646
28533,528,646
28540,532,646
28547,527,646
28553,516,645
28560,507,646
28566,500,646
28573,497,646
28580,495,646
28587,493,645
28593,493,646
28600,493,646
28606,494,646
28613,495,646
28620,496,646
28626,497,645
28634,497,646
28640,498,646
28646,498,646
28653,486,646
28660,460,646
28666,459,645
28674,515,645
28680,591,645
28686,677,645
28693,762,646
28700,717,646
28705,601,646
28713,468,646
28721,416,646
28726,425,646
28732,456,646
28740,472,645
28746,477,645
28753,479,645
28760,481,645
28766,487,645
28773,492,645
28780,492,645
28785,492,646
28793,495,645
28801,498,645
28806,500,645
28812,503,645
28820,505,646
28826,507,645
28833,510,645
28839,512,645
28847,515,645
28853,518,646
28860,522,645
28866,526,645
28873,530,646
28880,534,646
28887,536,645
28893,537,646
28900,539,646
28906,539,645
28913,538,645
28920,534,645
28926,531,646
28934,523,646
28940,513,646
28946,503,645
28953,496,645
28960,490,645
28966,486,646
28974,481,645
28980,480,645
28986,481,645
28993,483,646
29000,484,646
29006,486,645
29014,486,645
29020,488,645
29026,489,645
29033,490,645
29040,493,645
29046,497,645
29053,498,645
29060,499,645
29066,500,645
29073,500,646
29080,501,646
29085,501,646
29093,504,645
29101,505,645
29106,506,646
29112,507,645
29120,508,645
29126,507,646
29133,507,645
29139,510,646
29147,513,646
29153,516,646
29160,512,646
29165,513,646
29173,520,646
29180,531,646
29187,533,645
29192,527,646
29200,516,646
29206,508,646
29213,499,646
29220,496,646
29227,495,646
29233,493,646
29240,492,646
29246,492,646
29253,493,646
29260,494,646
29266,494,646
29274,497,646
29280,498,646
29286,500,646
29293,497,646
29300,479,646
29306,462,646
29314,463,646
29320,516,646
29326,605,646
29333,688,646
29340,760,646
29346,711,646
29353,555,646
29360,464,646
29366,418,646
29373,422,646
29380,456,646
29386,469,646
29393,476,646
29401,480,646
29406,482,646
29413,485,646
29420,488,646
29426,490,646
29433,493,645
29440,496,646
29446,497,646
29453,500,646
29460,504,646
29465,506,646
29473,508,646
29480,511,646
29487,514,646
29492,517,646
29500,520,646
29506,522,646
29513,526,646
29519,530,646
29527,533,646
29533,537,646
29540,538,646
29545,537,646
29553,536,646
29560,534,646
29566,531,646
29574,525,646
29580,519,646
29586,511,646
29593,502,646
29600,496,646
29606,491,646
29614,485,646
29620,483,646
29626,482,646
29633,482,646
29640,483,646
29646,484,646
29654,483,646
29660,484,646
29666,486,646
29673,489,646
29680,491,646
29686,493,646
29693,495,646
29701,496,646
29706,497,646
29713,499,646
29720,501,646
29726,503,646
29733,503,646
29740,503,646
29746,506,646
29753,507,646
29760,506,646
29766,506,646
29773,506,646
29780,507,646
29787,507,646
29792,508,646
29800,511,646
29806,513,646
29813,515,646
29819,513,646
29827,515,646
29833,522,646
29840,528,646
29845,530,646
29853,525,646
29860,518,646
29867,511,646
29872,505,646
29880,499,646
29886,496,646
29893,495,646
29899,494,646
29906,495,646
29914,497,646
29920,497,646
29925,497,646
29933,496,646
29940,497,646
29946,500,646
29954,499,646
29960,491,646
29966,472,646
29973,466,646
29980,518,646
29986,589,646
29993,673,646
30001,742,646
30006,731,646
30013,616,646
30020,487,646
30026,430,646
30033,415,646
30041,438,646
30046,460,646
30053,475,646
30060,481,646
30066,484,646
30073,488,646
30081,489,646
30086,489,646
30093,494,646
30100,498,646
30106,502,646
30113,503,646
30119,503,646
30127,506,646
30133,508,646
30140,512,646
30146,513,646
30153,516,646
30160,519,646
30167,522,646
30172,524,646
30180,526,646
30186,531,646
30193,535,646
30199,536,646
30206,538,646
30214,538,646
30220,536,646
30225,533,646
30233,528,646
30240,520,646
30246,512,646
30253,506,646
30260,499,646
30266,494,646
30273,489,646
30279,487,646
30286,485,646
30294,483,646
30300,484,646
30305,485,646
30313,485,646
30320,487,646
30326,489,646
30333,490,646
30341,491,646
30346,491,646
30353,496,646
30360,497,646
30366,499,646
30373,501,646
30381,503,646
30386,504,646
30393,506,646
30400,505,646
30406,505,646
30413,507,646
30420,507,646
30427,508,646
30433,508,646
30440,507,646
30446,506,646
30453,507,646
30460,505,646
30467,506,646
30473,508,646
30480,512,646
30486,514,646
30493,514,646
30499,515,646
30507,523,646
30513,530,646
30520,532,646
30525,531,646
30533,522,646
30540,514,646
30546,505,646
30553,497,646
30560,493,646
30566,492,646
30573,495,646
30579,494,646
30586,495,646
30594,494,646
30600,494,646
30605,495,646
30613,497,646
30620,498,646
30626,500,646
30632,495,646
30641,472,646
30646,457,646
30653,473,646
30659,543,646
30666,637,646
30673,734,646
30681,765,646
30686,687,646
30693,545,646
30700,440,646
30706,414,646
30713,436,646
30721,462,646
30726,469,646
30733,473,646
30740,477,646
30746,480,646
30753,485,646
30760,488,646
30767,490,646
30773,492,646
30780,494,646
30786,497,646
30793,500,646
30800,502,646
30807,504,646
30813,506,646
30820,510,646
30826,513,646
30833,516,646
30840,520,646
30846,523,646
30853,525,646
30860,528,646
30866,530,646
30873,533,646
30879,534,646
30886,535,646
30894,535,646
30900,534,646
30905,530,646
30913,525,646
30920,517,646
30926,508,646
30932,500,646
30940,495,646
30946,492,646
30953,487,646
30959,483,646
30966,483,646
30973,482,646
30981,482,646
30986,484,646
30993,484,646
31000,487,646
31006,488,646
31013,492,646
31021,492,646
31026,492,646
31033,494,646
31040,496,646
31046,498,646
31053,501,646
31060,502,646
31067,502,646
31073,503,646
31080,504,646
31086,506,646
31093,506,646
31100,507,646
31107,506,646
31113,506,646
31120,506,646
31126,506,646
31133,506,646
31140,507,646
31147,506,647
31153,504,647
31160,505,647
31166,509,647
31173,516,647
31179,517,647
31186,515,646
31194,519,647
31200,525,647
31205,529,646
31213,533,647
31220,526,647
31226,517,646
31233,509,647
31240,502,647
31246,499,647
31253,497,647
31259,493,647
31266,493,647
31273,495,647
31281,497,647
31285,498,647
31293,497,647
31300,498,646
31306,498,647
31312,499,647
31321,497,647
31326,487,647
31333,463,647
31340,465,647
31346,506,647
31353,608,647
31361,703,647
31366,757,647
31373,732,647
31380,582,647
31386,469,647
31393,416,647
31400,423,647
31407,453,647
31413,469,647
31420,476,647
31426,480,647
31433,484,647
31440,488,647
31447,491,647
31453,492,647
31460,494,647
31466,498,647
31473,502,647
31480,502,647
31486,502,647
31494,506,647
31500,508,647
31506,510,647
31513,512,647
31520,516,647
31526,519,647
31533,522,647
31540,526,647
31546,529,647
31553,531,647
31559,533,647
31566,536,647
31574,537,647
31580,538,647
31585,537,647
31593,534,647
31600,528,647
31606,523,647
31612,515,647
31621,506,647
31626,498,647
31633,492,647
31639,488,647
31646,483,647
31653,480,647
31661,480,647
31666,482,647
31673,483,647
31680,483,647
31686,484,647
31693,485,647
31700,487,647
31707,490,647
31713,491,647
31720,494,647
31726,494,647
31733,498,647
31740,500,647
31747,503,647
31753,504,647
31760,503,647
31766,503,647
31773,505,647
31780,504,647
31787,504,647
31793,505,647
31800,507,647
31806,507,647
31813,508,647
31820,507,647
31826,506,647
31834,507,647
31840,507,647
31846,506,647
31853,505,647
31859,505,647
31866,507,647
31874,507,647
31880,507,647
31886,510,647
31893,514,647
31900,515,647
31906,517,647
31912,524,647
31921,529,647
31926,532,647
31933,532,647
31939,524,647
31946,515,647
31953,508,647
31961,500,647
31965,498,647
31973,496,647
31980,493,647
31986,493,647
31992,495,647
32001,496,647
32006,497,647
32013,498,647
32019,498,647
32026,501,647
32033,500,647
32040,493,647
32047,474,647
32053,460,647
32060,480,647
32066,553,647
32073,647,647
32080,723,647
32087,752,647
32093,665,647
32100,518,647
32106,447,647
32113,414,647
32120,432,647
32126,459,647
32133,471,647
32140,477,647
32146,481,647
32153,485,647
32160,487,647
32166,489,647
32174,493,647
32180,497,647
32186,501,647
32193,500,647
32200,498,647
32206,499,647
32212,504,647
32220,508,647
32226,512,647
32233,515,647
32239,516,647
32246,520,647
32253,523,647
32261,526,647
32265,530,647
32273,534,647
32280,536,647
32286,538,647
32292,538,647
32301,537,647
32306,534,647
32313,529,647
32319,522,647
32326,517,647
32333,509,647
32340,501,647
32345,496,647
32353,492,647
32360,488,647
32366,484,647
32372,483,647
32380,480,647
32387,481,647
32393,482,647
32399,485,647
32406,486,647
32413,489,647
32420,491,647
32427,492,647
32433,492,647
32440,493,647
32446,495,647
32453,497,647
32460,498,647
32466,500,647
32474,503,647
32480,506,647
32486,507,647
32493,507,647
32500,505,647
32506,505,647
32514,506,647
32520,505,647
32526,505,647
32533,505,647
32540,506,647
32546,506,647
32553,505,647
32561,507,647
32566,508,647
32573,508,647
32580,511,647
32586,513,647
32592,513,647
32601,516,647
32606,517,647
32613,523,647
32619,528,647
32626,532,647
32633,529,647
32641,519,647
32645,514,647
32653,506,647
32660,500,647
32666,499,647
32672,497,647
32680,497,647
32687,495,647
32693,495,647
32699,496,647
32706,499,647
32713,501,647
32720,500,647
32727,501,647
32733,501,647
32740,493,647
32746,473,647
32753,465,647
32760,503,647
32766,582,647
32774,666,647
32780,730,647
32786,745,647
32793,635,647
32800,503,647
32806,435,647
32814,416,647
32820,430,647
32826,458,647
32833,475,647
32840,479,647
32846,482,647
32854,486,647
32860,490,647
32866,493,647
32873,496,647
32880,498,647
32886,500,647
32893,504,647
32901,507,647
32906,508,647
32913,509,647
32919,510,647
32926,514,647
32933,516,647
32941,517,647
32945,519,647
32953,522,647
32960,527,647
32966,531,647
32972,534,647
32980,536,647
32987,536,647
32993,536,647
32999,536,647
33006,533,647
33013,526,647
33020,520,647
33027,513,647
33033,508,647
33040,500,647
33046,495,647
33052,490,647
33060,487,647
33067,486,647
33073,486,647
33080,486,647
33086,486,647
33093,487,647
33100,487,647
33106,487,647
33114,490,648
33120,492,647
33126,494,647
33133,495,647
33140,498,647
33146,500,647
33154,500,647
33160,502,647
33166,505,648
33173,504,648
33180,505,648
33186,506,648
33193,507,648
33201,507,647
33206,507,648
33213,510,647
33219,509,648
33226,508,648
33233,504,648
33241,507,648
33246,506,648
33253,504,648
33260,504,648
33266,505,648
33272,506,648
33281,506,648
33286,506,648
33293,509,648
33299,514,648
33306,519,648
33313,518,648
33320,525,648
33326,530,648
33333,531,648
33340,531,648
33346,528,648
33352,520,648
33360,510,648
33367,504,648
33373,498,648
33379,495,648
33386,494,648
33393,494,648
33400,495,648
33406,495,648
33413,497,648
33420,497,648
33426,497,648
33433,499,648
33440,499,648
33446,495,648
33454,474,648
33460,456,648
33466,465,648
33473,540,648
33480,650,648
33486,736,648
33494,777,648
33500,698,648
33506,553,648
33513,444,648
33520,416,648
33526,437,648
33533,461,648
33541,467,648
33546,471,648
33553,475,648
33560,479,648
33566,481,648
33572,484,648
33581,491,648
33586,495,648
33593,499,648
33599,498,648
33606,498,648
33613,502,648
33620,503,648
33625,503,648
33633,508,648
33640,511,648
33646,514,648
33652,517,648
33660,521,648
33667,527,648
33673,529,648
33679,531,648
33686,534,648
33693,535,648
33700,536,648
33707,536,648
33713,535,648
33720,532,648
33726,526,648
33733,520,648
33740,512,648
33746,504,648
33754,496,648
33760,492,648
33766,490,648
33773,486,648
33780,482,648
33786,482,648
33794,482,648
33800,482,648
33806,483,648
33813,484,648
33820,488,648
33826,490,648
33833,494,648
33841,496,648
33846,497,648
33853,495,648
33860,498,648
33866,500,648
33873,502,648
33881,503,648
33886,503,648
33893,503,648
33899,505,648
33906,506,648
33913,507,648
33921,503,648
33925,503,648
33933,505,648
33940,507,648
33946,507,648
33952,508,648
33960,506,648
33967,508,648
33973,513,648
33979,517,648
33986,519,648
33993,519,648
34000,525,648
34007,531,648
34013,534,648
34020,532,648
34026,522,648
34032,513,648
34040,504,648
34046,498,648
34054,496,648
34060,493,648
34066,492,648
34073,494,648
34080,495,648
34086,496,648
34094,497,648
34100,500,648
34106,499,648
34113,496,648
34120,496,648
34126,490,648
34134,470,648
34140,457,648
34146,473,648
34153,559,648
34160,662,648
34166,743,648
34173,760,648
34181,634,648
34186,520,648
34193,432,648
34199,417,648
34206,439,648
34213,464,648
34221,472,648
34226,474,648
34233,478,648
34240,482,648
34246,487,648
34252,490,648
34260,491,648
34267,495,648
34273,500,648
34279,503,648
34286,503,648
34293,504,648
34300,507,648
34306,509,648
34313,510,648
34320,513,648
34326,516,648
34332,519,648
34340,525,648
34347,526,648
34353,530,648
34359,535,648
34366,537,648
34373,536,648
34380,538,648
34386,537,648
34394,535,648
34400,530,648
34406,523,648
34413,513,648
34420,504,648
34426,501,648
34434,498,648
34440,490,648
34446,485,648
34453,483,648
34460,483,648
34466,482,648
34473,481,648
34481,482,648
34486,483,648
34493,487,648
34500,487,648
34506,488,648
34513,491,648
34521,496,648
34526,496,648
34533,494,648
34540,496,648
34546,499,648
34552,503,648
34561,505,648
34566,503,648
34573,500,648
34579,502,648
34586,507,648
34593,508,648
34600,505,648
34606,504,648
34613,504,648
34620,505,648
34626,506,648
34632,507,648
34640,506,648
34647,505,648
34653,509,648
34659,513,648
34666,515,648
34673,514,648
34680,516,648
34686,523,648
34693,528,648
34700,532,648
34706,527,648
34713,514,648
34720,507,648
34726,500,648
34734,497,648
34740,496,648
34746,495,648
34753,495,648
34760,496,648
34766,496,648
34774,496,648
34780,495,648
34786,498,648
34793,501,648
34800,500,648
34806,498,648
34813,483,648
34821,461,648
34826,459,648
34833,513,648
34840,608,648
34846,683,648
34853,745,648
34861,705,648
34866,598,648
34873,472,648
34879,424,648
34886,417,648
34893,446,648
34900,469,648
34905,474,648
34913,480,648
34920,485,648
34926,487,648
34932,490,648
34940,492,648
34947,494,648
34953,494,648
34959,495,648
34966,499,648
34973,504,648
34980,507,648
34987,508,648
34993,509,648
35000,512,648
35006,514,648
35012,520,648
35020,521,648
35026,521,648
35034,525,648
35040,527,648
35046,532,648
35053,535,648
35060,536,648
35066,537,648
35074,536,648
35080,533,648
35086,527,648
35093,519,648
35100,513,648
35106,504,648
35113,496,648
35121,491,648
35126,488,648
35133,487,648
35140,486,648
35146,483,648
35153,482,648
35161,483,648
35166,486,648
35173,489,648
35180,487,648
35186,486,648
35193,490,648
35201,497,648
35206,499,648
35213,499,648
35220,497,648
35226,498,648
35232,504,648
35240,502,648
35247,501,648
35253,502,648
35259,504,648
35266,506,648
35273,505,648
35280,507,648
35286,506,648
35293,506,648
35300,507,648
35306,507,648
35312,505,648
35320,509,648
35326,511,648
35334,513,648
35340,519,648
35346,520,648
35353,518,648
35360,522,648
35366,527,648
35374,529,648
35380,523,648
35386,514,648
35393,507,648
35400,500,648
35406,497,648
35414,496,648
35420,495,648
35426,494,648
35433,491,648
35440,497,648
35446,499,648
35453,498,648
35461,497,648
35466,499,648
35473,503,648
35480,496,648
35486,477,648
35493,458,648
35501,475,648
35506,519,648
35513,619,648
35520,714,648
35526,764,648
35533,693,648
35540,538,648
35547,454,648
35553,419,648
35559,427,648
35566,454,648
35573,470,648
35580,473,648
35586,476,648
35593,484,648
35600,488,648
35606,489,648
35612,493,648
35620,496,648
35627,499,648
35633,500,648
35639,505,648
35646,507,648
35653,506,648
35660,504,648
35665,507,648
35674,513,648
35680,516,648
35686,519,648
35692,521,648
35700,523,648
35706,525,648
35714,531,648
35720,538,648
35726,540,648
35733,538,648
35740,534,648
35746,532,648
35753,529,648
35761,529,648
35766,521,648
35773,508,648
35780,500,648
35786,494,648
35793,488,648
35801,483,648
35806,482,648
35813,485,648
35820,484,648
35826,482,648
35833,481,648
35841,488,648
35846,491,648
35853,488,648
35860,492,648
35866,492,648
35873,491,648
35880,490,648
35886,493,648
35893,497,648
35900,501,648
35906,504,648
35912,502,648
35920,506,648
35927,506,648
35933,505,648
35939,505,648
35946,513,648
35953,512,648
35960,504,648
35965,504,648
35974,509,648
35980,512,648
35986,512,648
35992,517,648
36000,526,648
36006,531,648
36014,533,648
36019,526,648
36026,518,648
36033,512,648
36040,507,648
36046,498,648
36054,489,648
36060,487,648
36066,489,648
36072,491,648
36080,495,648
36086,499,648
36093,497,648
36101,497,648
36106,496,648
36113,495,648
36120,496,648
36126,481,648
36133,461,648
36141,476,647
36146,533,648
36153,634,648
36160,716,648
36166,763,648
36173,677,648
36180,521,648
36186,454,648
36193,412,648
36200,428,648
36206,458,648
36213,473,648
36220,476,648
36227,477,648
36233,481,648
36240,491,648
36246,493,648
36253,488,648
36260,492,648
36265,495,648
36273,497,648
36280,500,648
36286,504,648
36292,507,648
36300,509,648
36306,511,648
36314,517,648
36319,520,648
36326,521,647
36333,521,648
36340,525,648
36345,530,648
36354,532,647
36360,532,648
36366,532,648
36372,538,648
36380,539,648
36386,536,648
36393,532,648
36401,522,648
36406,517,648
36413,510,648
36420,502,648
36426,496,648
36433,494,648
36441,489,648
36446,484,647
36453,483,648
36460,482,647
36466,481,647
36473,483,647
36481,485,647
36486,486,647
36493,487,647
36500,489,647
36506,493,647
36513,497,647
36520,498,647
36527,501,648
36533,500,647
36540,502,647
36546,507,647
36553,505,647
36560,497,647
36566,498,647
36573,502,647
36580,507,647
36586,511,647
36592,514,647
36600,516,647
36606,513,647
36614,520,647
36619,527,647
36626,531,647
36633,529,647
36640,517,647
36645,514,647
36654,507,647
36660,502,647
36666,496,647
36672,493,647
36680,492,647
36686,491,647
36694,491,647
36699,492,648
36706,493,647
36713,493,647
36720,494,647
36726,497,647
36733,499,647
36741,486,647
36746,468,647
36752,459,647
36760,503,647
36766,587,647
36773,681,647
36781,763,647
36786,758,647
36793,620,647
36800,471,647
36806,416,647
36813,417,647
36820,451,647
36827,468,647
36833,474,647
36840,477,647
36846,480,647
36853,484,647
36860,489,647
36867,491,647
36873,491,647
36880,492,647
36886,494,647
36893,497,647
36900,501,647
36907,505,647
36913,506,647
36920,509,647
36926,513,647
36933,516,647
36940,518,647
36945,520,647
36954,523,647
36960,525,647
36966,527,647
36972,529,647
36980,529,647
36986,533,647
36994,538,647
36999,537,647
37006,533,647
37013,528,647
37020,518,647
37025,511,647
37033,502,647
37041,496,647
37046,491,647
37052,488,647
37060,486,647
37066,484,647
37073,483,647
37081,483,647
37086,484,647
37093,487,647
37100,488,647
37106,490,647
37113,491,647
37121,492,647
37126,494,647
37133,498,647
37140,499,647
37146,501,647
37153,502,647
37160,502,647
37167,503,647
37173,505,647
37180,507,647
37186,510,647
37193,511,647
37200,512,647
37207,511,647
37213,515,647
37220,520,647
37226,526,647
37233,532,647
37240,526,647
37245,519,647
37254,510,647
37260,501,647
37266,498,647
37272,496,647
37280,494,647
37286,495,647
37294,494,647
37299,494,647
37306,494,647
37313,495,647
37320,498,647
37325,497,647
37334,495,647
37340,495,647
37346,484,647
37352,465,647
37360,461,647
37366,509,647
37373,605,647
37380,679,647
37386,737,647
37393,728,647
37400,586,647
37406,474,647
37413,422,647
37421,415,647
37426,436,646
37432,461,646
37440,473,647
37446,477,647
37453,480,647
37460,483,647
37466,485,647
37473,491,647
37480,493,647
37486,494,647
37493,496,646
37500,499,647
37507,502,646
37513,504,647
37520,505,647
37526,506,647
37533,510,646
37540,515,647
37547,517,646
37553,520,646
37560,522,646
37566,524,646
37573,527,646
37580,529,646
37586,530,646
37594,530,646
37600,530,646
37606,530,646
37613,527,646
37620,522,646
37625,517,646
37634,511,646
37640,505,646
37646,499,646
37652,494,646
37660,489,646
37666,486,646
37673,485,646
37679,485,646
37686,485,646
37693,486,646
37700,488,646
37705,488,646
37713,489,646
37721,492,646
37726,494,646
37732,496,646
37740,499,646
37746,501,646
37753,502,646
37761,502,646
37766,502,646
37773,502,646
37780,506,646
37786,509,646
37793,510,646
37800,512,646
37807,515,646
37813,514,646
37820,513,646
37826,516,646
37833,525,646
37840,532,646
37847,532,646
37853,524,646
37860,513,646
37866,505,646
37873,499,646
37880,495,646
37886,493,646
37894,492,646
37900,492,646
37906,493,646
37913,495,646
37920,494,646
37925,495,646
37934,500,646
37940,502,646
37946,503,646
37952,496,646
37960,477,646
37966,466,646
37974,496,646
37979,559,646
37986,635,646
37993,713,646
38000,746,646
38005,676,646
38013,533,646
38021,438,646
38026,415,646
38032,420,646
38040,452,646
38046,471,645
38053,477,645
38060,479,646
38066,481,645
38073,487,646
38080,492,646
38086,495,646
38093,496,646
38100,499,645
38107,501,645
38113,503,645
38120,505,646
38126,507,645
38133,508,645
38140,511,645
38147,512,646
38153,516,645
38160,519,645
38166,522,645
38173,525,645
38180,528,645
38187,529,645
38193,530,645
38200,532,645
38206,533,645
38213,532,645
38220,529,645
38226,527,645
38234,521,645
38240,514,645
38246,508,645
38253,504,645
38260,498,645
38266,494,645
38274,490,645
38280,489,645
38286,489,645
38293,489,645
38300,487,645
38305,487,645
38313,489,645
38321,492,645
38326,495,645
38332,496,645
38340,499,645
38346,500,645
38353,501,645
38360,503,645
38366,504,645
38373,504,645
38380,506,645
38385,507,645
38393,508,645
38401,507,645
38406,508,645
38412,507,645
38420,508,645
38426,511,645
38433,514,645
38440,516,645
38447,516,645
38453,519,645
38460,526,645
38466,532,645
38473,533,645
38480,526,645
38487,517,645
38493,509,645
38500,501,645
38506,497,645
38513,496,645
38520,492,645
38526,491,644
38534,491,645
38540,494,645
38546,495,645
38553,496,644
38560,497,644
38566,498,645
38574,500,644
38580,502,645
38586,491,645
38593,467,644
38600,466,644
38606,506,644
38614,606,644
38620,686,644
38626,755,644
38632,738,645
38640,590,644
38646,473,644
38653,416,644
38660,418,644
38666,441,644
38673,467,644
38680,473,644
38685,476,644
38693,481,644
38701,486,644
38706,488,644
38712,490,644
38720,493,644
38726,496,644
38733,498,644
38739,501,644
38747,504,644
38753,507,644
38760,509,644
38766,510,644
38773,511,644
38780,513,644
38787,517,644
38793,519,644
38800,523,644
38806,526,644
38813,530,644
38820,532,644
38827,533,644
38833,532,644
38840,532,644
38846,531,644
38853,529,644
38860,521,644
38866,514,644
38874,509,644
38880,504,644
38886,498,644
38893,492,644
38900,487,644
38906,486,644
38914,487,644
38920,487,644
38926,487,644
38933,488,644
38940,490,644
38946,490,644
38953,492,644
38960,494,644
38966,495,644
38973,494,644
38980,496,644
38985,499,644
38993,502,644
39001,505,644
39006,506,644
39012,505,644
39020,507,644
39026,508,644
39033,507,644
39040,507,644
39046,506,644
39053,507,644
39060,511,644
39065,514,644
39073,516,644
39080,513,644
39087,514,644
39092,519,644
39100,525,644
39106,531,644
39113,530,644
39120,521,644
39127,516,644
39133,508,644
39140,499,644
39146,496,644
39153,495,644
39160,494,644
39166,492,644
39174,493,644
39180,494,644
39186,496,644
39193,497,644
39200,497,644
39206,498,644
39214,498,644
39220,495,644
39226,480,643
39233,462,644
39240,474,644
39246,541,643
39254,646,644
39260,716,644
39266,768,644
39273,688,644
39280,527,644
39286,449,644
39293,414,644
39301,434,643
39306,456,643
39313,470,643
39320,476,643
39326,479,643
39333,483,644
39340,487,643
39346,489,643
39353,494,643
39360,494,643
39365,496,643
39373,499,643
39380,503,643
39387,504,643
39392,505,643
39400,509,643
39406,511,643
39413,514,643
39419,518,643
39427,520,643
39433,522,643
39440,524,643
39445,526,643
39453,530,643
39460,533,643
39467,534,643
39473,536,643
39480,534,643
39486,533,643
39493,529,643
39500,522,643
39506,517,643
39514,509,643
39520,502,643
39526,495,643
39533,490,643
39540,488,643
39546,486,643
39554,484,643
39560,483,643
39566,484,643
39573,486,643
39580,488,643
39586,490,643
39593,491,643
39601,494,643
39606,495,643
39613,495,643
39620,496,643
39626,500,643
39633,503,643
39640,502,643
39646,502,643
39653,504,643
39660,506,643
39666,507,643
39673,505,643
39681,507,643
39686,506,643
39692,506,643
39700,506,643
39706,506,643
39713,506,643
39719,505,643
39727,505,643
39733,508,643
39740,513,643
39745,515,643
39753,515,643
39760,520,643
39767,525,643
39772,529,643
39780,533,643
39786,528,643
39793,515,643
39799,509,643
39806,501,643
39814,495,643
39820,493,643
39826,491,643
39833,491,643
39840,492,643
39846,494,643
39854,494,643
39860,496,643
39866,497,643
39873,497,643
39880,499,643
39886,499,643
39894,483,643
39900,462,643
39906,463,643
39913,508,643
39920,609,643
39926,691,643
39933,760,643
39941,708,643
39946,595,643
39953,465,643
39960,417,643
39966,422,643
39973,453,643
39981,472,643
39986,476,643
39993,481,643
40000,483,643
40006,487,643
40013,490,643
40019,493,643
40027,495,643
40033,497,643
40040,500,643
40045,501,643
40053,505,643
40060,506,643
40067,508,643
40072,512,643
40080,512,642
40086,515,643
40093,520,643
40099,521,643
40107,525,643
40113,528,643
40120,531,643
40125,532,643
40133,533,643
40140,534,643
40146,534,643
40153,532,643
40160,529,643
40166,524,642
40173,518,643
40180,511,642
40186,504,642
40194,497,642
40200,493,642
40206,488,642
40213,485,643
40220,484,642
40226,484,642
40233,483,642
40240,483,642
40246,485,642
40253,486,642
40260,490,642
40266,492,642
40273,494,642
40281,493,642
40286,495,642
40293,497,642
40300,499,642
40306,501,643
40313,502,642
40320,503,642
40326,503,642
40333,507,642
40340,506,642
40346,506,642
40353,506,642
40360,507,642
40367,506,642
40372,506,642
40380,507,642
40386,505,642
40393,503,642
40399,504,642
40407,505,642
40413,506,642
40420,507,642
40425,507,642
40433,511,642
40440,509,642
40446,508,642
40452,511,642
40460,514,642
40466,513,642
40473,517,642
40479,524,642
40486,530,642
40494,532,642
40500,525,642
40506,516,642
40513,509,642
40520,502,642
40526,497,642
40534,495,642
40540,494,642
40546,495,642
40553,495,642
40560,498,642
40566,498,642
40573,500,642
40581,499,642
40586,500,642
40593,500,642
40600,492,642
40606,472,642
40613,458,642
40621,487,642
40626,551,642
40633,650,642
40640,743,642
40646,760,642
40653,647,642
40660,498,642
40667,431,642
40673,416,642
40680,442,642
40686,467,642
40693,476,642
40699,477,642
40707,481,642
40713,486,642
40720,488,642
40725,491,642
40733,494,642
40740,495,642
40747,498,642
40752,502,642
40760,505,642
40766,504,642
40773,506,642
40779,510,642
40786,513,642
40794,515,642
40800,517,642
40805,520,642
40813,522,642
40820,526,642
40826,528,642
40833,531,642
40840,535,642
40846,536,642
40853,537,642
40860,536,642
40866,534,642
40873,530,642
40881,523,642
40886,517,642
40893,510,642
40900,501,642
40906,496,642
40913,489,642
40921,488,642
40926,486,642
40933,486,642
40940,486,642
40946,485,642
40953,486,642
40961,487,642
40966,489,642
40973,491,642
40980,492,642
40986,493,642
40993,496,642
41000,497,642
41007,498,642
41013,500,642
41020,502,642
41026,503,642
41033,502,642
41040,503,642
41047,504,642
41052,505,642
41060,505,642
41066,506,642
41073,506,642
41079,505,642
41086,506,642
41094,505,642
41100,505,642
41105,506,642
41113,506,642
41120,504,642
41126,505,642
41133,505,642
41140,505,642
41146,504,642
41153,506,642
41159,507,642
41166,509,642
41174,513,642
41180,515,642
41186,515,642
41193,520,642
41200,528,642
41206,531,642
41213,533,642
41221,526,642
41226,520,642
41233,507,642
41240,502,642
41246,501,642
41253,498,641
41261,494,642
41266,494,642
41273,496,642
41280,496,642
41286,497,641
41293,499,642
41300,499,642
41307,500,642
41313,501,642
41320,489,642
41326,472,641
41333,460,641
41340,497,642
41347,576,642
41353,643,642
41360,736,642
41366,750,642
41373,624,642
41379,501,642
41387,432,642
41393,415,641
41400,441,642
41405,465,641
41413,478,641
41420,480,642
41426,483,642
41433,487,641
41440,491,641
41446,494,642
41453,496,642
41459,499,642
41466,501,641
41474,501,642
41480,501,641
41485,504,641
41493,506,642
41500,509,642
41506,510,642
41512,513,641
41521,517,641
41526,518,641
41533,525,641
41540,528,641
41546,530,641
41553,532,641
41561,535,642
41566,537,641
41573,538,642
41580,535,641
41586,533,641
41593,529,641
41601,523,641
41606,517,641
41613,506,641
41620,500,641
41626,495,641
41633,489,641
41640,483,641
41647,484,641
41653,485,641
41660,485,641
41666,484,641
41673,485,641
41680,486,641
41687,487,641
41693,489,641
41700,492,641
41706,494,642
41713,494,641
41720,494,641
41726,496,641
41732,499,641
41740,502,641
41746,502,641
41753,504,641
41759,504,641
41766,505,641
41774,507,641
41780,506,641
41785,505,641
41793,505,641
41800,506,641
41806,505,641
41812,503,641
41820,505,641
41826,505,641
41833,504,641
41839,504,641
41846,504,641
41853,505,641
41861,505,641
41866,506,641
41873,507,641
41880,507,641
41886,509,641
41893,512,641
41901,512,641
41906,513,641
41913,515,641
41920,523,641
41926,528,641
41933,531,641
41940,528,641
41947,520,641
41953,515,641
41960,507,641
41966,500,641
41973,497,641
41980,495,641
41987,496,641
41993,495,641
42000,498,641
42006,499,641
42013,497,641
42020,497,641
42027,500,641
42033,499,641
42040,494,641
42046,483,641
42053,462,641
42059,470,641
42066,527,641
42074,622,641
42080,699,641
42085,750,641
42093,701,641
42100,550,641
42106,454,641
42113,417,641
42120,425,641
42126,455,641
42133,473,641
42139,477,641
42146,479,641
42153,484,641
42161,488,641
42165,490,641
42173,493,641
42180,496,641
42186,498,641
42192,500,641
42201,504,641
42206,506,641
42213,508,641
42220,508,641
42226,509,641
42233,515,641
42241,519,641
42246,518,641
42253,519,641
42260,524,641
42266,527,641
42273,532,641
42280,533,641
42287,535,641
42293,536,641
42300,535,641
42306,534,641
42313,532,641
42320,526,641
42327,518,641
42333,512,641
42340,505,641
42346,498,641
42353,491,641
42360,487,641
42366,482,641
42374,479,641
42380,480,641
42386,481,641
42393,482,641
42400,482,641
42406,485,641
42413,487,641
42420,490,641
42426,494,641
42433,495,641
42439,495,641
42446,497,641
42454,500,641
42460,501,641
42465,500,641
42473,501,641
42480,504,641
42486,505,641
42492,504,641
42501,503,641
42506,502,641
42513,505,641
42519,505,641
42526,505,641
42533,504,641
42541,505,641
42546,505,641
42553,506,641
42560,506,641
42566,504,641
42573,507,641
42580,511,641
42587,515,641
42593,518,641
42600,513,641
42606,514,641
42613,523,641
42620,528,641
42627,529,641
42633,523,641
42640,518,641
42646,514,641
42653,504,641
42660,498,641
42667,498,641
42673,497,641
42680,496,641
42686,497,641
42693,496,641
42700,499,641
42706,499,641
42713,498,641
42720,496,641
42726,498,641
42733,494,641
42739,477,641
42746,462,641
42754,485,641
42760,560,641
42765,626,641
42773,710,641
42780,744,641
42786,650,641
42792,530,641
42801,438,641
42806,416,641
42813,429,641
42819,457,641
42826,474,641
42833,479,641
42841,483,641
42846,484,641
42853,490,641
42860,492,641
42866,495,641
42873,497,641
42881,500,641
42886,504,641
42893,508,641
42900,510,641
42906,508,641
42913,508,641
42920,511,641
42927,513,641
42933,515,641
42940,519,641
42946,523,641
42953,527,641
42960,529,641
42967,533,641
42973,537,641
42980,537,641
42986,534,641
42993,535,641
43000,532,641
43006,526,641
43013,522,641
43020,515,641
43026,509,641
43033,498,641
43039,495,641
43046,490,641
43054,486,641
43060,484,641
43065,483,641
43073,482,641
43080,483,641
43086,485,641
43092,487,641
43100,488,641
43106,489,641
43113,489,641
43119,490,641
43126,494,641
43133,497,641
43141,497,641
43146,498,641
43153,500,641
43160,501,641
43166,502,641
43172,504,641
43181,507,641
43186,505,641
43193,505,641
43200,504,641
43206,504,641
43213,504,641
43220,503,641
43227,503,641
43233,503,641
43240,506,641
43246,506,641
43253,506,641
43260,505,641
43267,505,641
43273,507,641
43280,510,641
43286,511,641
43293,516,641
43300,515,641
43307,518,641
43313,526,641
43320,528,641
43326,531,641
43333,529,641
43340,520,641
43346,512,641
43354,504,641
43360,499,641
43366,497,641
43373,495,641
43380,495,641
43386,497,641
43393,496,641
43400,494,641
43406,497,641
43413,499,641
43419,499,641
43426,500,641
43433,495,641
43441,473,641
43445,460,641
43453,467,641
43460,537,641
43466,622,641
43472,700,641
43481,760,641
43486,708,641
43493,555,641
43499,455,641
43506,417,641
43513,429,641
43521,460,641
43526,472,641
43533,475,641
43540,479,641
43546,487,641
43553,489,641
43560,490,640
43567,495,641
43573,499,641
43580,501,641
43586,499,641
43593,499,641
43600,506,641
43607,508,641
43613,509,641
43620,510,641
43626,511,641
43633,515,641
43640,519,641
43646,522,641
43654,526,641
43660,529,641
43666,531,641
43673,536,641
43680,535,641
43686,535,641
43693,536,641
43700,536,641
43706,532,641
43713,526,641
43719,521,641
43726,514,641
43734,504,641
43740,497,641
43745,492,641
43753,487,641
43760,481,641
43766,479,641
43772,478,641
43781,480,641
43786,482,641
43793,483,641
43799,483,641
43806,486,641
43813,489,641
43821,491,641
43826,492,641
43833,494,641
43840,496,641
43846,499,641
43853,502,641
43860,503,641
43867,501,641
43873,500,641
43880,502,641
43886,503,641
43893,502,641
43900,503,641
43907,505,640
43913,506,641
43920,504,641
43926,505,641
43933,504,641
43940,504,640
43947,505,641
43953,507,641
43960,512,641
43966,516,641
43973,513,641
43980,516,640
43986,525,640
43994,531,641
44000,531,641
44006,525,641
44013,515,641
44019,509,641
44026,502,641
44034,497,641
44040,493,640
44045,493,641
44053,495,640
44060,493,641
44066,495,641
44072,497,640
44081,498,641
44086,497,640
44093,498,640
44099,498,640
44106,492,640
44113,470,640
44121,460,640
44125,479,640
44133,565,640
44140,655,641
44146,728,641
44152,741,640
44161,613,640
44166,510,640
44173,429,640
44180,416,640
44186,439,640
44193,469,640
44200,477,640
44207,480,640
44213,481,640
44220,487,640
44226,490,640
44233,491,640
44240,494,640
44247,499,640
44253,501,640
44260,500,640
44266,502,640
44273,505,640
44280,506,640
44286,509,640
44293,514,640
44300,518,640
44306,519,640
44313,520,640
44320,522,640
44326,528,640
44334,532,640
44340,535,640
44346,537,640
44353,539,640
44360,538,640
44366,539,640
44372,536,640
44380,529,640
44386,521,640
44393,514,640
44399,508,640
44406,501,640
44413,490,640
44421,482,640
44425,482,640
44433,482,640
44440,480,640
44446,481,640
44452,484,640
44461,487,640
44466,487,640
44473,486,640
44479,485,640
44486,489,640
44493,490,640
44500,490,640
44507,495,640
44513,497,640
44520,500,640
44526,501,640
44533,503,640
44540,503,640
44547,502,640
44553,504,640
44560,507,640
44566,507,640
44573,507,640
44580,506,640
44587,507,640
44593,508,640
44600,511,640
44606,514,640
44613,513,640
44620,515,640
44626,521,640
44634,529,640
44640,532,640
44646,530,640
44653,521,640
44660,510,640
44666,502,640
44673,496,640
44680,496,640
44686,496,640
44693,495,640
44699,494,640
44706,497,640
44713,498,640
44721,499,640
44725,500,640
44733,501,640
44740,500,640
44746,500,640
44752,489,640
44761,469,640
44766,465,640
44773,515,640
44779,594,640
44786,664,640
44793,732,640
44801,701,640
44806,600,640
44813,496,640
44820,429,640
44826,415,640
44833,439,640
44840,463,640
44847,478,640
44853,484,640
44860,485,640
44866,487,640
44873,491,640
44880,495,640
44887,497,640
44893,499,640
44900,501,640
44906,503,640
44913,505,640
44920,507,640
44926,510,640
44934,512,640
44940,515,640
44946,516,640
44953,518,640
44960,522,640
44966,526,640
44973,529,640
44980,533,640
44986,536,640
44993,534,640
44999,534,640
45006,532,639
45014,532,640
45020,529,639
45025,526,640
45033,519,640
45040,511,640
45046,505,639
45052,499,640
45061,494,639
45066,491,640
45073,487,640
45079,486,639
45086,487,639
45093,487,640
45101,487,640
45106,485,639
45113,487,640
45120,488,639
45126,491,639
45133,493,639
45140,495,639
45147,496,639
45153,500,639
45160,502,639
45166,503,639
45173,505,639
45180,506,639
45187,507,639
45193,506,639
45200,508,639
45206,508,639
45213,505,639
45220,504,639
45227,504,639
45233,507,639
45240,508,640
45246,509,639
45253,512,639
45260,513,639
45266,514,639
45274,517,639
45280,524,639
45286,530,639
45293,532,640
45299,528,639
45306,520,639
45314,511,640
45320,505,639
45325,500,639
45333,495,639
45340,495,639
45346,497,639
45352,497,639
45361,498,639
45366,497,639
45373,498,639
45379,500,639
45386,501,639
45393,500,639
45401,498,639
45405,489,639
45413,468,639
45420,473,639
45426,530,639
45432,617,639
45441,703,639
45446,748,639
45453,696,639
45460,546,639
45466,463,639
45473,416,639
45480,424,639
45487,454,640
45493,469,639
45500,478,639
45506,481,639
45513,486,640
45520,489,639
45527,493,639
45533,495,639
45540,497,639
45546,499,639
45553,501,639
45560,503,639
45566,505,639
45573,507,639
45580,511,639
45586,512,639
45593,513,639
45600,515,639
45606,519,639
45614,522,639
45620,525,639
45626,527,639
45633,531,639
45640,536,639
45646,538,639
45652,536,639
45660,537,640
45666,536,639
45673,531,639
45679,525,639
45686,519,639
45693,511,639
45701,503,639
45705,498,639
45713,491,639
45720,487,639
45726,485,639
45732,484,640
45741,485,640
45746,485,639
45753,485,639
45759,485,640
45766,487,639
45773,490,640
45780,492,639
45787,492,639
45793,493,639
45800,495,639
45806,495,639
45813,496,639
45820,498,639
45827,499,639
45833,501,639
45840,504,640
45846,504,640
45853,505,639
45860,505,639
45867,507,639
45873,507,639
45880,507,639
45886,506,639
45893,511,639
45900,513,639
45906,514,639
45914,512,639
45920,516,639
45926,523,639
45933,531,639
45940,531,640
45946,527,640
45953,522,639
45960,513,640
45966,505,640
45973,499,639
45979,497,640
45986,494,639
45993,492,639
46001,496,640
46005,496,639
46013,494,639
46020,494,639
46026,496,639
46032,499,639
46041,501,639
46046,499,639
46053,480,639
46059,460,639
46066,463,639
46073,532,639
46081,637,639
46086,709,639
46093,768,640
46100,696,640
46106,553,640
46113,443,640
46120,415,639
46127,432,640
46133,460,639
46140,474,639
46146,477,639
46153,478,639
46160,481,639
46167,485,639
46173,486,639
46180,488,640
46186,492,639
46193,496,640
46200,498,639
46206,497,639
46214,503,640
46220,507,639
46226,508,640
46233,509,639
46240,514,640
46246,516,639
46253,518,639
46260,520,639
46266,524,639
46273,530,639
46279,531,639
46286,534,639
46294,534,640
46300,533,639
46305,532,639
46313,529,639
46320,529,640
46326,522,639
46332,517,640
46341,509,640
46346,503,640
46353,497,639
46359,490,640
46366,485,640
46373,483,640
46381,482,639
46386,481,639
46393,481,639
46400,482,639
46406,484,639
46413,487,639
46420,488,639
46427,489,639
46433,492,639
46440,493,640
46446,493,639
46453,497,639
46460,499,640
46467,501,639
46473,501,640
46480,503,639
46486,505,639
46493,505,640
46500,505,639
46507,503,639
46513,504,639
46520,506,640
46526,506,639
46533,505,639
46540,506,639
46546,511,640
46554,516,639
46560,517,639
46566,516,639
46573,524,640
46579,531,639
46586,534,639
46594,532,639
46600,523,639
46605,516,639
46613,506,640
46620,498,639
46626,497,640
46632,497,639
46641,495,639
46646,492,640
46653,493,639
46659,495,640
46666,496,639
46673,498,639
46681,498,639
46685,498,639
46693,501,639
46700,495,640
46706,474,639
46712,455,639
46721,483,639
46726,548,640
46733,649,639
46740,742,639
46746,764,639
46753,652,640
46760,498,640
46767,429,640
46773,412,639
46780,438,640
46786,464,640
46793,474,640
46800,477,640
46807,479,640
46813,484,640
46820,489,639
46826,492,640
46833,494,639
46840,494,639
46846,498,640
46853,501,639
46860,504,639
46866,503,639
46873,508,640
46880,510,640
46886,512,640
46894,515,639
46900,516,640
46906,519,639
46913,523,640
46920,525,639
46926,530,640
46932,532,640
46940,533,640
46946,533,640
46953,534,640
46959,535,640
46966,533,640
46973,528,640
46981,520,640
46985,516,640
46993,509,639
47000,500,639
47006,496,640
47012,490,639
47021,484,640
47026,482,639
47033,480,640
47039,480,640
47046,481,639
47053,485,640
47060,486,639
47067,488,640
47073,489,640
47080,491,639
47086,493,639
47093,493,640
47100,496,639
47107,498,639
47113,501,640
47120,501,640
47126,502,639
47133,504,639
47140,504,640
47147,506,640
47153,506,640
47160,504,640
47166,505,640
47173,505,640
47180,505,640
47186,506,640
47194,507,640
47200,506,639
47206,506,640
47213,506,640
47220,509,640
47226,511,640
47233,513,640
47240,514,640
47246,517,640
47253,525,639
47259,531,640
47266,534,639
47273,530,640
47281,520,640
47285,514,640
47293,504,640
47300,499,639
47306,497,640
47312,495,640
47321,494,640
47326,493,640
47333,494,640
47339,495,639
47346,496,640
47353,497,639
47361,498,640
47366,497,640
47373,497,640
47380,489,640
47386,467,640
47393,456,640
47400,492,640
47407,576,640
47413,657,640
47420,746,640
47426,750,640
47433,622,640
47440,483,640
47447,425,640
47453,414,640
47460,444,640
47466,468,640
47473,476,640
47480,479,640
47486,483,640
47494,487,640
47500,490,640
47506,492,640
47513,495,640
47520,497,640
47526,497,640
47533,499,640
47540,503,640
47546,505,640
47553,508,640
47559,509,640
47566,512,640
47574,516,640
47580,517,640
47585,518,640
47593,523,640
47600,530,640
47606,532,640
47612,534,640
47621,537,640
47626,537,640
47633,536,640
47639,537,640
47646,534,640
47653,528,640
47661,520,640
47666,513,640
47673,506,640
47680,500,640
47686,494,640
47693,488,640
47700,485,640
47707,481,640
47713,480,640
47720,481,640
47726,482,640
47733,484,640
47740,485,640
47747,486,640
47753,488,640
47760,493,640
47766,495,640
47773,493,640
47780,495,640
47787,497,640
47793,500,640
47800,499,640
47806,499,640
47813,499,640
47820,500,640
47826,502,640
47834,507,640
47840,508,640
47846,506,640
47853,507,640
47859,508,640
47866,508,640
47874,506,640
47880,508,640
47885,509,640
47893,507,640
47900,504,640
47906,505,640
47912,506,640
47921,507,640
47926,509,640
47933,514,640
47939,516,640
47946,515,640
47953,522,640
47961,530,640
47965,533,640
47973,532,640
47980,524,640
47986,516,640
47992,509,640
48001,502,640
48006,498,640
48013,497,640
48020,498,640
48026,497,640
48033,494,640
48040,494,640
48047,495,640
48053,495,640
48060,498,640
48066,499,640
48073,499,640
48080,494,640
48087,476,640
48093,461,640
48100,485,640
48106,543,640
48113,633,640
48120,716,640
48126,741,640
48133,670,640
48140,531,640
48146,447,640
48153,417,640
48160,431,640
48166,460,640
48174,477,640
48180,479,640
48186,479,640
48193,481,640
48200,487,640
48206,491,640
48212,493,640
48220,495,640
48226,498,640
48233,502,640
48239,505,640
48246,507,640
48253,509,640
48261,513,640
48265,514,640
48273,513,640
48280,513,640
48286,517,640
48292,524,640
48301,525,640
48306,526,640
48313,530,640
48319,531,640
48326,534,640
48333,537,640
48340,538,640
48347,534,640
48353,529,640
48360,525,640
48366,520,640
48373,508,640
48380,501,640
48387,497,640
48393,491,640
48400,485,640
48406,483,640
48413,482,640
48420,483,640
48427,484,640
48433,486,640
48440,488,640
48446,489,640
48453,493,640
48460,493,640
48466,494,640
48474,492,640
48480,493,640
48486,495,640
48493,497,640
48500,500,640
48506,502,640
48513,504,640
48520,505,640
48526,504,640
48533,505,640
48539,506,640
48546,509,640
48553,510,640
48561,508,640
48565,506,640
48573,505,640
48580,504,640
48586,503,640
48592,505,640
48601,505,640
48606,507,640
48613,510,640
48619,513,640
48626,513,640
48633,514,640
48641,520,640
48646,526,640
48653,529,640
48660,532,640
48666,528,640
48673,519,640
48680,513,640
48687,505,640
48693,500,640
48700,496,640
48706,495,640
48713,496,640
48720,497,640
48727,496,640
48733,495,640
48740,497,640
48746,501,640
48753,503,640
48760,501,640
48766,497,640
48774,483,640
48780,466,640
48786,464,640
48793,513,640
48800,602,640
48806,671,640
48813,731,640
48820,720,640
48826,608,640
48833,488,640
48839,430,640
48846,415,640
48854,437,640
48860,463,640
48865,473,640
48873,478,640
48880,481,640
48886,486,640
48892,490,640
48901,494,640
48906,495,640
48913,496,640
48919,503,640
48926,510,640
48933,505,640
48941,500,640
48946,503,640
48953,510,640
48960,513,640
48966,514,640
48973,517,640
48980,521,640
48987,527,640
48993,530,640
49000,533,640
49006,532,640
49013,534,640
49020,537,640
49027,537,640
49033,532,640
49040,526,640
49046,524,640
49053,520,640
49060,513,640
49067,505,640
49073,501,640
49080,497,640
49086,491,640
49093,486,640
49100,484,640
49106,483,640
49114,483,640
49120,485,640
49126,486,640
49133,486,640
49139,490,640
49146,491,640
49154,490,640
49160,493,640
49165,497,640
49173,496,640
49180,495,640
49186,499,640
49192,501,640
49201,502,640
49206,504,640
49213,504,640
49219,505,640
49226,505,640
49233,506,640
49241,510,640
49245,510,640
49253,507,640
49260,508,640
49266,508,640
49272,506,640
49281,507,640
49286,509,640
49293,511,640
49300,512,640
49306,515,640
49313,522,640
49320,529,640
49327,532,640
49333,532,640
49340,525,640
49346,518,640
49353,510,640
49360,503,640
49367,498,640
49373,495,640
49380,494,640
49386,494,640
49393,496,640
49400,497,640
49406,497,640
49413,499,640
49420,501,640
49426,498,640
49433,498,640
49440,493,640
49446,474,640
49454,462,640
49460,492,640
49466,554,640
49473,640,640
49480,721,640
49486,742,640
49492,649,640
49500,527,640
49506,445,640
49513,414,640
49519,424,640
49526,452,640
49533,471,640
49541,478,640
49545,481,640
49553,486,640
49560,489,640
49566,492,640
49572,496,640
49581,500,640
49586,500,640
49593,500,640
49599,502,640
49606,505,640
49613,507,640
49620,511,640
49627,515,640
49633,519,640
49640,518,640
49646,518,640
49653,520,640
49660,525,640
49667,529,640
49673,533,640
49680,533,640
49686,536,640
49693,539,640
49700,537,640
49707,533,640
49713,531,640
49720,526,640
49726,514,640
49733,505,640
49740,499,640
49746,494,640
49754,487,640
49760,481,640
49766,480,640
49773,481,640
49780,484,640
49786,486,640
49793,483,640
49800,484,640
49806,489,640
49813,491,640
49819,490,640
49826,492,640
49833,493,640
49841,496,640
49845,498,640
49853,500,640
49860,499,640
49866,501,640
49872,502,640
49881,503,640
49886,505,640
49893,505,640
49899,507,640
49906,508,640
49913,507,640
49921,507,640
49926,508,640
49933,509,640
49940,507,640
49946,507,640
49953,510,640
49960,512,640
49967,512,640
49973,513,640
49980,517,640
49986,524,640
49993,531,640
50000,532,640
50007,527,640
50013,521,640
50020,514,640
50026,504,640
50033,499,640
50040,498,640
50046,497,640
50054,494,640
50060,496,640
50066,499,640
50073,496,640
50080,495,640
50086,497,640
50093,501,640
50100,502,640
50106,501,640
50113,486,640
50119,465,640
50126,465,640
50134,527,640
50140,611,640
50145,677,640
50153,749,640
50160,696,641
50166,568,640
50172,467,640
50181,423,640
50186,419,640
50193,445,640
50199,466,641
50206,478,640
50213,484,640
50221,488,640
50226,488,640
50233,490,640
50240,493,640
50246,496,640
50253,498,640
50260,501,640
50267,503,640
50273,507,640
50280,513,641
50286,510,641
50293,508,641
50300,512,640
50307,516,640
50313,518,640
50320,522,640
50326,524,641
50333,529,640
50340,533,640
50347,539,640
50353,543,640
50360,540,641
50366,536,640
50373,536,640
50380,533,641
50386,525,641
50394,518,640
50400,512,640
50406,504,641
50413,493,640
50419,487,640
50426,484,640
50434,482,641
50440,480,641
50445,479,641
50453,480,641
50460,482,640
50466,482,640
50472,484,640
50481,486,640
50486,489,640
50493,491,640
50499,490,641
50506,492,640
50513,497,641
50521,500,641
50525,498,640
50533,497,640
50540,501,640
50546,504,640
50552,505,641
50561,504,640
50566,504,640
50573,505,640
50580,508,640
50586,508,640
50593,508,640
50600,508,640
50607,507,640
50613,508,640
50620,513,640
50626,516,640
50633,515,641
50640,518,640
