TimeStamp,ECG Data,GSR Data,EMG Data
217424,495,65531,497
217433,491,65531,469
217440,495,65531,499
217384,485,65531,498
217392,481,65531,468
217400,486,65531,495
217408,490,65531,475
217415,487,65531,473
217424,495,65531,497
217433,491,65531,469
217440,495,65531,499
217384,485,65531,498
217392,481,65531,468
217400,486,65531,495
217408,490,65531,475
217415,487,65531,473
217424,495,65531,497
217433,491,65531,469
217440,495,65531,499
0,504,65531,474
8,494,65531,467
16,505,65531,496
24,499,65531,474
32,496,65531,495
39,506,65531,488
49,498,65531,484
56,507,65531,506
64,496,65531,480
72,489,65531,497
80,501,65531,485
89,538,65531,496
96,623,65531,549
104,674,65531,564
111,707,65531,618
120,624,65531,605
129,507,65531,570
136,459,65531,554
144,442,65531,499
152,459,65531,504
160,478,65531,483
167,472,65531,474
177,484,65531,490
184,479,65531,467
192,487,65531,488
200,496,65531,478
208,488,65531,477
217,507,65531,498
224,496,65531,477
232,497,65531,498
240,505,65531,488
248,502,65531,487
257,512,65531,507
264,506,65531,486
272,511,65531,507
280,520,65531,498
288,512,65531,499
295,528,65531,522
305,524,65531,501
312,529,65531,523
320,538,65531,514
328,529,65531,515
336,545,65531,534
345,537,65531,515
351,541,65531,536
360,545,65531,526
368,532,65531,523
376,537,65531,538
385,518,65531,512
392,511,65531,528
400,510,65531,509
407,489,65531,498
416,489,65531,508
424,475,65531,479
433,480,65531,496
440,481,65531,477
448,472,65531,472
456,487,65531,489
464,477,65531,465
473,486,65531,489
479,492,65531,476
488,486,65531,474
496,500,65531,495
504,489,65531,472
513,498,65531,497
520,501,65531,482
528,492,65531,481
535,506,65531,503
544,502,65531,481
552,509,65531,507
561,501,65531,488
568,492,65531,487
576,508,65531,505
584,500,65531,483
592,504,65531,507
601,506,65531,488
608,499,65531,489
616,510,65531,507
624,500,65531,484
632,507,65531,508
641,509,65531,490
648,501,65531,492
656,511,65531,509
663,504,65531,486
672,513,65531,512
680,519,65531,496
689,512,65531,502
696,523,65531,518
704,520,65531,496
712,525,65531,523
719,522,65531,505
729,510,65531,506
736,517,65531,520
744,498,65531,490
752,498,65531,511
760,502,65531,489
769,497,65531,493
776,506,65531,505
784,499,65531,483
792,503,65531,507
800,505,65531,488
808,500,65531,493
817,506,65531,503
824,487,65531,480
832,491,65531,501
840,535,65531,492
847,611,65531,528
857,701,65531,586
864,722,65531,606
872,621,65531,627
880,506,65531,570
888,446,65531,535
897,450,65531,516
904,462,65531,481
912,475,65531,500
920,482,65531,476
928,482,65531,481
936,492,65531,490
945,488,65531,469
952,496,65531,497
960,495,65531,476
968,496,65531,486
975,503,65531,498
985,497,65531,476
992,504,65531,505
1000,506,65531,485
1008,504,65531,493
1016,514,65531,505
1025,511,65531,488
1031,516,65531,517
1040,522,65531,498
1048,517,65531,505
1056,530,65531,519
1064,529,65531,502
1073,539,65531,534
1080,543,65531,514
1088,542,65531,526
1096,552,65531,538
1104,546,65531,520
1113,550,65531,550
1120,545,65531,526
1128,530,65531,530
1136,528,65531,535
1144,507,65531,506
1153,500,65531,525
1159,492,65531,494
1168,479,65531,492
1176,481,65531,495
1184,470,65531,467
1192,474,65531,491
1201,475,65531,462
1208,475,65531,472
1215,484,65531,483
1224,478,65531,460
1232,484,65531,489
1241,486,65531,463
1248,483,65531,475
1256,496,65531,486
1264,492,65531,468
1272,498,65531,499
1281,495,65531,473
1288,491,65531,483
1296,502,65531,495
1304,498,65531,475
1312,508,65531,507
1320,504,65531,481
1329,498,65531,498
1336,507,65531,500
1343,498,65531,478
1352,504,65531,508
1360,504,65531,482
1369,501,65531,499
1376,506,65531,502
1384,498,65531,480
1392,505,65531,509
1399,505,65531,484
1409,508,65531,501
1416,517,65531,508
1424,507,65531,486
1432,517,65531,517
1440,522,65531,493
1448,515,65531,510
1457,517,65531,507
1464,503,65531,491
1472,501,65531,516
1480,498,65531,485
1488,494,65531,498
1497,502,65531,496
1504,494,65531,480
1512,503,65531,509
1520,500,65531,481
1527,496,65531,494
1537,508,65531,496
1544,500,65531,480
1552,493,65531,507
1560,480,65531,473
1568,506,65531,496
1576,593,65531,521
1583,654,65531,542
1592,726,65531,620
1600,670,65531,606
1608,527,65531,592
1616,462,65531,549
1625,436,65531,502
1632,460,65531,511
1640,474,65531,474
1648,475,65531,487
1656,486,65531,485
1665,479,65531,468
1672,487,65531,495
1680,489,65531,467
1688,488,65531,484
1696,498,65531,483
1704,492,65531,474
1711,500,65531,503
1720,503,65531,477
1728,502,65531,495
1736,512,65531,496
1744,504,65531,485
1753,516,65531,517
1760,513,65531,488
1767,512,65531,505
1776,525,65531,508
1784,518,65531,496
1793,532,65531,530
1800,533,65531,503
1808,535,65531,526
1816,547,65531,527
1824,540,65531,518
1832,548,65531,548
1840,545,65531,519
1848,538,65531,537
1856,540,65531,534
1864,517,65531,514
1872,513,65531,536
1881,498,65531,496
1888,488,65531,507
1895,487,65531,499
1904,472,65531,476
1912,477,65531,498
1921,472,65531,463
1928,470,65531,478
1936,480,65531,473
1944,473,65531,461
1951,484,65531,491
1960,482,65531,460
1968,484,65531,479
1976,493,65531,479
1984,487,65531,468
1992,498,65531,500
2000,492,65531,470
2009,495,65531,499
2016,503,65531,488
2024,495,65531,476
2032,504,65531,507
2040,501,65531,477
2049,502,65531,505
2056,507,65531,495
2064,496,65531,483
2072,506,65531,511
2079,502,65531,480
2088,500,65531,506
2096,507,65531,497
2104,499,65531,484
2112,509,65531,513
2120,506,65531,483
2128,508,65531,510
2137,518,65531,495
2144,513,65531,494
2152,519,65531,523
2160,519,65531,494
2168,523,65531,521
2177,520,65531,505
2184,508,65531,499
2192,509,65531,524
2200,498,65531,489
2207,497,65531,508
2216,504,65531,492
2224,496,65531,485
2232,505,65531,514
2240,499,65531,482
2248,500,65531,509
2256,505,65531,490
2264,496,65531,486
2272,503,65531,512
2280,483,65531,475
2288,477,65531,496
2296,519,65531,488
2305,604,65531,519
2312,679,65531,585
2320,717,65531,595
2328,626,65531,621
2336,513,65531,573
2344,438,65531,527
2352,441,65531,521
2360,458,65531,475
2368,469,65531,493
2376,480,65531,472
2384,472,65531,470
2392,485,65531,493
2400,479,65531,462
2408,480,65531,486
2416,490,65531,471
2424,481,65531,470
2433,495,65531,492
2440,489,65531,467
2447,489,65531,491
2456,500,65531,479
2464,490,65531,477
2472,504,65531,501
2480,499,65531,476
2488,502,65531,505
2496,513,65531,490
2504,505,65531,491
2512,521,65531,514
2520,517,65531,489
2528,521,65531,520
2536,533,65531,508
2544,525,65531,508
2552,538,65531,533
2561,530,65531,504
2568,531,65531,533
2575,537,65531,520
2584,517,65531,513
2592,517,65531,531
2600,497,65531,494
2608,489,65531,512
2616,486,65531,487
2624,471,65531,480
2632,480,65531,493
2640,469,65531,462
2649,473,65531,489
2656,479,65531,466
2664,470,65531,463
2672,486,65531,485
2680,477,65531,457
2689,484,65531,489
2696,491,65531,468
2703,482,65531,468
2712,499,65531,493
2720,493,65531,468
2728,499,65531,501
2736,507,65531,482
2744,498,65531,484
2752,511,65531,506
2759,504,65531,480
2768,508,65531,512
2777,513,65531,490
2784,504,65531,493
2792,517,65531,516
2800,509,65531,487
2808,512,65531,518
2816,518,65531,496
2824,509,65531,498
2832,523,65531,522
2840,518,65531,494
2848,522,65531,526
2856,526,65531,502
2864,522,65531,508
2872,538,65531,530
2880,524,65531,503
2888,521,65531,532
2896,517,65531,505
2905,502,65531,507
2912,513,65531,520
2920,504,65531,490
2928,507,65531,519
2936,509,65531,492
2944,500,65531,496
2952,513,65531,514
2960,504,65531,486
2968,508,65531,516
2976,511,65531,491
2984,492,65532,496
2992,494,65531,506
2999,508,65531,481
3008,596,65531,539
3016,670,65531,555
3024,710,65532,604
3033,663,65531,626
3040,536,65531,573
3048,461,65531,563
3056,442,65531,503
3064,447,65532,493
3072,479,65531,498
3080,477,65531,468
3088,482,65531,496
3096,490,65531,471
3104,484,65532,479
3112,498,65531,490
3120,491,65531,470
3127,496,65531,501
3136,503,65531,479
3144,495,65532,486
3152,509,65531,500
3161,500,65531,479
3168,508,65531,511
3176,512,65531,488
3183,506,65532,495
3192,521,65531,510
3201,512,65531,488
3208,520,65531,522
3216,527,65531,500
3224,522,65532,511
3232,538,65531,524
3240,530,65531,504
3248,538,65531,538
3256,545,65531,516
3264,535,65532,526
3272,547,65531,538
3280,533,65531,513
3289,532,65531,543
3296,523,65531,511
3304,505,65532,515
3311,508,65531,521
3320,486,65531,487
3329,486,65531,511
3336,484,65531,478
3344,473,65532,481
3352,485,65531,488
3360,474,65531,463
3367,482,65531,494
3377,484,65531,464
3384,479,65532,475
3392,495,65531,487
3400,486,65531,465
3408,496,65531,499
3417,496,65531,471
3424,492,65532,485
3432,505,65531,495
3440,495,65531,473
3448,503,65531,506
3457,504,65531,479
3464,497,65532,492
3472,510,65531,502
3480,498,65531,480
3488,505,65531,511
3495,506,65531,483
3505,500,65532,499
3512,515,65531,507
3520,506,65531,484
3528,514,65531,517
3536,514,65531,488
3545,513,65532,507
3551,529,65531,518
3560,518,65531,494
3568,519,65531,526
3576,509,65531,493
3585,497,65532,505
3592,506,65531,506
3600,493,65531,482
3607,500,65531,512
3616,500,65531,481
3624,495,65532,496
3633,508,65531,497
3640,497,65531,480
3648,506,65531,512
3656,505,65531,483
3664,493,65532,500
3673,490,65531,491
3679,484,65531,471
3688,556,65531,522
3696,638,65531,530
3704,704,65532,594
3713,708,65531,622
3720,575,65531,588
3728,481,65531,579
3735,444,65531,512
3744,441,65532,503
3752,472,65531,493
3761,468,65531,470
3768,478,65531,495
3776,477,65531,462
3784,475,65532,478
3792,486,65531,475
3801,474,65531,463
3807,484,65531,491
3816,483,65531,462
3824,480,65532,478
3832,491,65531,478
3841,478,65531,464
3848,490,65531,496
3856,487,65531,465
3863,486,65532,481
3872,499,65531,484
3880,488,65531,471
3889,504,65531,505
3896,502,65531,475
3904,503,65532,498
3912,517,65531,498
3920,509,65532,488
3929,525,65531,521
3935,523,65531,493
3944,521,65532,514
3952,531,65531,515
3960,516,65532,501
3969,522,65531,530
3976,509,65531,494
3984,497,65532,508
3991,497,65531,502
4000,474,65531,479
4008,480,65531,502
4017,466,65531,463
4024,466,65532,477
4032,474,65531,471
4040,462,65531,456
4048,479,65531,486
4057,472,65531,454
4064,477,65532,473
4072,489,65531,474
4080,477,65531,461
4088,494,65531,494
4097,488,65531,464
4104,493,65532,489
4112,501,65531,486
4119,489,65531,471
4128,505,65531,505
4136,497,65531,475
4145,501,65532,503
4152,508,65531,493
4160,494,65532,480
4168,508,65531,510
4175,500,65531,479
4185,505,65532,506
4192,511,65531,499
4200,496,65531,484
4208,513,65531,515
4216,506,65531,484
4225,516,65532,512
4232,521,65531,503
4240,509,65531,494
4248,528,65531,526
4256,522,65531,497
4264,521,65532,522
4273,518,65531,505
4280,500,65531,496
4288,510,65531,522
4296,498,65531,487
4303,504,65532,509
4313,509,65531,495
4320,496,65531,487
4328,512,65531,517
4336,503,65531,485
4344,510,65532,514
4353,514,65531,496
4360,500,65532,491
4368,503,65531,516
4376,483,65531,478
4384,525,65532,513
4392,615,65531,528
4401,689,65532,571
4408,733,65531,637
4416,629,65531,604
4424,508,65532,593
4431,455,65531,538
4441,442,65532,504
4448,474,65531,515
4456,477,65531,476
4464,487,65532,499
4472,492,65531,480
4481,485,65532,479
4487,501,65531,505
4496,492,65531,473
4504,501,65532,500
4512,506,65531,486
4520,497,65532,485
4529,514,65531,509
4536,505,65531,483
4543,511,65532,509
4552,517,65531,497
4560,508,65532,495
4569,525,65531,520
4576,516,65531,494
4584,525,65532,524
4592,531,65531,509
4600,525,65532,510
4609,541,65531,534
4616,533,65531,508
4624,542,65532,538
4632,548,65531,525
4640,540,65532,525
4648,553,65531,549
4657,538,65531,518
4664,542,65532,546
4671,538,65531,529
4680,517,65532,519
4688,518,65531,536
4697,493,65531,496
4704,495,65532,516
4712,490,65531,491
4720,477,65532,484
4727,489,65531,504
4737,475,65531,468
4744,486,65532,493
4752,490,65531,476
4760,481,65532,474
4768,499,65531,497
4776,487,65531,468
4785,501,65531,502
4792,502,65531,480
4799,493,65532,479
4808,510,65531,505
4816,497,65531,477
4825,510,65531,511
4832,511,65531,490
4840,501,65532,491
4848,514,65531,512
4855,500,65531,482
4865,511,65531,515
4872,512,65531,495
4880,501,65532,492
4888,515,65531,515
4896,499,65531,482
4904,512,65531,516
4913,510,65531,489
4920,504,65532,495
4928,522,65531,520
4936,510,65531,490
4944,522,65532,524
4953,520,65531,498
4960,517,65532,504
4968,535,65531,526
4976,516,65531,498
4983,521,65532,528
4993,510,65531,500
5000,496,65532,497
5008,510,65531,516
5016,494,65531,484
5024,507,65531,515
5032,503,65531,487
5039,495,65532,488
5048,512,65531,511
5056,498,65531,481
5064,511,65531,514
5072,508,65531,489
5081,492,65532,494
5088,492,65531,505
5096,498,65531,476
5104,589,65531,535
5112,672,65531,553
5121,721,65532,605
5128,676,65531,636
5136,514,65531,570
5144,456,65531,560
5152,440,65531,501
5160,460,65532,495
5167,484,65531,506
5176,473,65531,469
5184,489,65532,500
5192,488,65531,473
5200,488,65532,481
5209,502,65531,493
5216,488,65531,471
5223,503,65532,504
5232,503,65531,481
5240,499,65532,489
5249,513,65531,503
5256,499,65531,481
5264,515,65531,515
5272,514,65531,490
5280,513,65532,503
5288,525,65531,514
5295,512,65531,491
5304,526,65531,525
5312,527,65531,502
5320,526,65532,514
5328,541,65531,528
5337,527,65531,505
5344,542,65531,540
5351,544,65531,518
5360,538,65532,527
5368,548,65531,541
5377,527,65531,513
5384,534,65531,543
5392,522,65531,512
5400,508,65532,516
5408,507,65531,518
5416,482,65531,487
5424,491,65532,512
5432,482,65531,480
5440,477,65532,483
5448,488,65531,490
5456,471,65531,464
5465,491,65531,496
5472,486,65531,468
5479,483,65532,475
5488,497,65531,489
5496,482,65531,465
5505,501,65531,500
5512,498,65531,474
5520,497,65532,486
5528,507,65531,498
5535,491,65531,473
5544,508,65531,508
5552,504,65531,482
5560,501,65532,492
5568,510,65531,504
5576,491,65531,478
5584,510,65531,511
5593,499,65531,480
5600,501,65532,495
5608,511,65531,507
5616,491,65531,479
5624,510,65531,512
5633,500,65531,481
5640,501,65532,495
5648,511,65531,504
5656,491,65531,480
5663,510,65531,513
5672,499,65531,482
5680,501,65532,493
5688,515,65531,506
5696,501,65531,483
5704,520,65531,519
5712,509,65531,488
5721,520,65532,512
5728,527,65531,515
5736,502,65531,489
5744,515,65531,521
5752,498,65531,487
5761,499,65532,503
5768,504,65531,504
5776,484,65531,477
5784,505,65531,509
5791,495,65531,478
5800,501,65532,496
5808,507,65531,502
5816,488,65531,475
5824,510,65531,509
5832,492,65531,476
5840,485,65532,491
5849,495,65531,487
5856,526,65531,484
5864,628,65531,551
5872,703,65531,569
5880,698,65532,616
5889,563,65531,593
5896,458,65531,536
5904,442,65531,533
5912,444,65531,480
5920,471,65532,488
5928,484,65531,485
5936,469,65531,463
5944,493,65531,497
5952,483,65531,465
5960,494,65532,488
5968,500,65531,486
5976,484,65532,470
5984,507,65531,504
5992,499,65531,475
6000,507,65532,498
6008,513,65531,498
6017,498,65532,483
6024,518,65531,515
6031,510,65531,487
6040,516,65532,507
6048,523,65531,510
6056,509,65532,494
6064,530,65531,526
6072,522,65531,497
6080,531,65532,519
6088,540,65531,520
6096,527,65532,510
6104,547,65531,543
6112,538,65531,513
6120,541,65532,532
6128,544,65531,532
6136,525,65532,516
6145,534,65531,544
6152,515,65531,507
6159,508,65532,517
6168,504,65531,511
6176,480,65532,487
6184,494,65531,513
6192,479,65531,475
6200,485,65532,492
6208,489,65531,486
6215,471,65531,465
6224,494,65531,498
6233,481,65531,465
6240,493,65532,487
6248,499,65531,487
6256,484,65532,472
6264,505,65531,504
6273,490,65531,471
6280,502,65532,494
6287,508,65531,496
6296,491,65532,479
6304,512,65531,511
6312,496,65531,479
6320,506,65532,499
6328,510,65531,497
6336,493,65532,484
6343,513,65531,515
6352,497,65531,482
6361,508,65532,507
6368,511,65531,499
6376,494,65532,484
6384,515,65531,517
6392,499,65531,483
6400,511,65532,507
6408,514,65531,502
6416,495,65532,485
6424,517,65531,518
6432,501,65531,485
6440,514,65532,514
6448,515,65531,503
6455,497,65531,485
6464,521,65531,520
6472,510,65531,488
6480,523,65532,518
6489,520,65531,505
6496,509,65532,497
6504,532,65531,529
6512,511,65531,495
6520,519,65532,522
6528,513,65531,506
6536,491,65532,491
6544,509,65531,519
6552,492,65531,482
6560,506,65532,508
6568,504,65531,491
6576,491,65532,484
6583,512,65531,515
6592,496,65531,481
6600,510,65532,508
6608,505,65531,492
6617,479,65532,483
6624,496,65531,508
6632,521,65531,484
6639,610,65532,538
6648,697,65531,572
6657,707,65532,604
6664,608,65531,624
6672,479,65531,551
6680,443,65532,540
6688,448,65531,497
6696,464,65532,484
6704,486,65531,504
6711,474,65531,466
6720,488,65532,493
6728,490,65531,478
6736,482,65532,473
6745,501,65531,499
6752,485,65531,467
6760,502,65532,498
6768,503,65531,482
6776,495,65532,483
6785,513,65531,511
6792,497,65531,479
6800,513,65532,507
6808,514,65531,493
6816,505,65532,492
6824,523,65531,517
6832,510,65531,489
6839,524,65532,517
6848,527,65531,506
6856,519,65532,504
6864,540,65531,531
6873,525,65531,503
6880,541,65532,536
6888,542,65531,521
6895,529,65532,516
6904,544,65531,543
6913,525,65531,511
6920,531,65532,538
6928,522,65531,517
6936,501,65532,507
6944,505,65531,523
6952,477,65531,481
6960,489,65532,505
6968,485,65531,486
6976,473,65532,476
6984,489,65531,498
6992,470,65531,462
7001,490,65532,495
7008,487,65531,471
7016,480,65532,471
7023,500,65531,498
7032,482,65531,465
7041,502,65532,500
7048,501,65531,480
7056,491,65532,479
7064,509,65531,503
7072,491,65531,474
7079,508,65532,507
7089,503,65531,484
7096,493,65532,484
7104,512,65531,510
7112,493,65531,479
7120,511,65532,513
7129,504,65531,487
7136,498,65532,490
7144,512,65531,512
7152,494,65531,480
7160,512,65532,513
7169,505,65531,488
7176,498,65532,490
7184,513,65531,514
7192,492,65531,480
7200,513,65532,514
7207,507,65531,490
7217,504,65532,496
7224,515,65531,516
7232,494,65531,481
7240,516,65532,516
7248,512,65531,491
7257,512,65532,501
7264,522,65531,517
7272,504,65531,489
7280,527,65532,523
7288,519,65531,500
7297,510,65532,505
7304,517,65531,521
7312,490,65531,486
7320,507,65531,517
7328,499,65531,487
7335,495,65532,491
7345,509,65531,505
7352,490,65531,478
7360,511,65532,512
7368,504,65531,486
7376,504,65532,496
7385,511,65531,507
7391,481,65531,476
7400,491,65532,505
7408,514,65531,486
7416,598,65532,522
7425,682,65531,578
7432,709,65531,592
7440,635,65532,627
7448,492,65531,560
7456,437,65532,528
7463,447,65531,514
7473,450,65531,472
7480,482,65532,499
7488,478,65531,470
7496,478,65532,476
7504,493,65531,488
7513,474,65531,462
7519,498,65532,496
7528,493,65531,473
7536,492,65532,481
7544,507,65531,497
7553,487,65531,471
7560,510,65532,508
7568,505,65531,483
7576,507,65532,495
7584,517,65531,508
7592,498,65531,481
7601,523,65531,518
7608,518,65531,494
7616,519,65532,505
7624,530,65531,520
7632,513,65531,494
7641,538,65531,531
7647,534,65531,508
7656,532,65532,518
7664,543,65531,534
7672,524,65531,506
7681,543,65531,542
7688,532,65531,513
7696,525,65532,521
7703,527,65531,532
7712,495,65531,496
7720,506,65531,523
7729,486,65531,486
7736,482,65532,491
7744,490,65531,497
7752,466,65531,466
7760,489,65531,498
7769,477,65531,464
7775,478,65532,473
7784,493,65531,487
7792,474,65531,461
7800,500,65531,497
7809,490,65531,468
7816,494,65532,484
7824,504,65531,496
7831,484,65531,468
7840,508,65531,505
7848,497,65531,476
7857,504,65532,495
7864,510,65531,503
7872,487,65531,475
7880,511,65531,510
7887,500,65531,481
7897,505,65532,498
7904,512,65531,507
7912,489,65531,477
7920,513,65531,512
7928,499,65531,481
7937,506,65532,498
7944,512,65531,504
7952,490,65531,479
7959,515,65531,514
7968,502,65531,484
7976,507,65532,500
7985,512,65531,502
7992,492,65531,481
8000,517,65531,516
8008,505,65531,486
8016,517,65532,508
8025,522,65531,508
8032,501,65531,487
8040,525,65531,523
8048,517,65531,494
8056,525,65532,515
8065,522,65531,515
8072,495,65531,490
8080,512,65531,521
8087,497,65531,488
8096,504,65532,502
8104,508,65531,504
8113,488,65532,482
8120,511,65531,514
8128,497,65531,481
8136,505,65532,500
8143,512,65531,504
8153,489,65532,481
8160,506,65531,512
8168,476,65531,474
8176,501,65532,492
8184,588,65531,519
8193,646,65532,542
8200,716,65531,617
8208,669,65531,602
8215,543,65532,591
8224,454,65531,549
8232,418,65531,494
8241,468,65531,512
8248,470,65531,472
8256,484,65532,488
8264,489,65531,485
8271,470,65531,464
8281,498,65531,498
8288,488,65531,468
8296,498,65532,488
8304,503,65531,491
8312,486,65532,473
8321,511,65531,507
8328,497,65531,475
8336,509,65532,497
8344,515,65531,502
8352,496,65532,484
8360,521,65531,518
8369,505,65531,486
8376,518,65532,507
8384,524,65531,508
8392,508,65532,494
8399,534,65531,529
8409,521,65531,498
8416,532,65532,519
8424,538,65531,522
8432,521,65531,507
8440,545,65531,542
8449,529,65531,509
8455,533,65532,526
8464,535,65531,527
8472,507,65531,505
8480,519,65531,533
8488,493,65531,492
8497,498,65532,514
8504,492,65531,499
8512,469,65532,476
8520,488,65531,502
8528,471,65531,464
8537,487,65532,490
8544,488,65531,483
8552,470,65532,464
8560,496,65531,496
8568,479,65531,463
8577,497,65532,492
8583,500,65531,488
8592,481,65532,469
8600,506,65531,503
8608,488,65531,470
8616,504,65532,498
8625,501,65531,484
8632,485,65532,476
8639,511,65531,510
8648,491,65531,476
8656,507,65532,502
8665,504,65531,489
8672,487,65532,479
8680,512,65531,513
8688,494,65531,478
8695,508,65532,503
8705,506,65531,493
8712,487,65531,480
8720,514,65531,514
8728,497,65531,480
8736,512,65532,510
8744,510,65531,495
8753,501,65532,491
8760,522,65531,520
8767,507,65531,487
8776,519,65532,516
8784,519,65531,504
8793,512,65532,499
8800,530,65531,528
8808,505,65531,492
8816,515,65532,518
8823,506,65531,503
8833,489,65532,490
8840,510,65531,516
8848,489,65531,480
8856,507,65532,506
8864,504,65531,491
8872,491,65532,486
8881,513,65531,510
8888,495,65531,480
8896,511,65532,506
8904,495,65531,489
8912,472,65532,478
8921,529,65531,511
8928,580,65531,506
8936,664,65532,574
8944,711,65531,598
8951,641,65532,600
8961,522,65531,594
8968,440,65531,520
8976,442,65532,518
8984,458,65531,487
8992,467,65532,476
9000,491,65531,498
9009,469,65531,462
9016,493,65532,492
9024,494,65531,480
9032,483,65532,473
9040,505,65531,502
9049,484,65531,468
9056,507,65532,499
9064,505,65531,485
9072,495,65532,484
9079,516,65531,514
9089,494,65531,479
9096,515,65532,508
9104,514,65531,496
9112,503,65532,492
9120,526,65531,519
9128,506,65531,489
9137,531,65532,525
9144,528,65531,506
9152,516,65532,502
9160,541,65531,532
9168,523,65531,502
9177,544,65532,538
9184,540,65531,520
9192,528,65532,517
9200,541,65531,541
9207,516,65531,506
9217,524,65532,535
9224,513,65531,511
9232,491,65532,498
9240,502,65531,518
9248,472,65531,476
9256,491,65532,505
9265,479,65531,474
9272,472,65532,473
9280,493,65531,499
9288,471,65531,462
9296,496,65532,496
9305,487,65531,471
9312,480,65532,472
9320,503,65531,497
9328,482,65531,467
9335,506,65532,501
9345,497,65531,479
9352,487,65532,479
9360,510,65531,505
9368,487,65531,474
9376,512,65532,509
9384,500,65531,483
9391,489,65532,481
9400,511,65531,509
9408,488,65531,476
9416,511,65532,510
9424,501,65531,484
9433,501,65532,492
9440,512,65531,512
9448,485,65531,476
9456,514,65532,512
9464,506,65531,488
9473,508,65532,495
9480,521,65531,518
9488,495,65531,483
9496,525,65532,519
9504,516,65531,495
9512,513,65532,504
9519,522,65531,525
9528,489,65531,486
9536,510,65532,516
9544,495,65531,488
9552,494,65532,492
9561,507,65531,504
9568,484,65531,476
9575,512,65532,509
9584,499,65531,485
9592,497,65532,490
9601,512,65531,506
9608,488,65531,478
9616,504,65532,510
9624,485,65531,479
9632,525,65532,498
9640,614,65531,539
9648,650,65531,549
9656,704,65532,618
9664,636,65531,598
9672,511,65532,573
9680,455,65531,546
9689,417,65531,484
9696,464,65532,504
9703,473,65531,473
9712,479,65532,477
9720,494,65531,492
9729,469,65531,460
9736,501,65532,497
9744,489,65531,471
9752,492,65532,481
9759,508,65531,500
9768,482,65531,469
9776,513,65532,506
9784,502,65531,483
9792,502,65532,491
9800,517,65531,506
9808,492,65531,479
9817,525,65531,517
9824,513,65531,491
9832,511,65532,498
9840,528,65531,516
9848,506,65531,490
9857,537,65531,528
9864,528,65531,503
9872,532,65532,516
9880,542,65531,530
9887,520,65531,503
9896,547,65531,540
9904,535,65531,514
9912,530,65532,522
9920,534,65531,533
9928,500,65531,499
9936,521,65531,530
9944,497,65531,494
9952,493,65532,499
9960,500,65531,509
9968,468,65531,472
9976,498,65532,505
9985,478,65531,470
9992,485,65532,481
10000,498,65531,492
10008,473,65531,465
10016,506,65532,502
10024,489,65531,472
10032,495,65532,483
10040,509,65531,499
10048,483,65531,472
10056,515,65531,509
10064,498,65531,479
10072,506,65532,495
10080,514,65531,506
10088,488,65531,477
10096,519,65531,514
10104,501,65531,484
10113,513,65532,504
10120,517,65531,510
10127,489,65531,480
10136,519,65531,516
10144,502,65531,486
10152,513,65532,504
10160,518,65531,512
10168,493,65531,483
10176,527,65531,520
10184,508,65531,489
10192,521,65532,509
10200,529,65531,516
10208,506,65531,492
10216,532,65532,529
10224,506,65531,494
10232,511,65532,509
10241,506,65531,506
10248,480,65531,481
10255,512,65532,515
10264,494,65531,482
10272,505,65532,498
10280,509,65531,501
10288,485,65531,477
10296,517,65531,514
10304,500,65531,483
10312,511,65532,504
10320,499,65531,499
10329,466,65531,472
10336,532,65531,514
10344,595,65531,512
10352,672,65532,571
10360,717,65531,611
10369,609,65532,592
10376,527,65531,593
10383,442,65531,522
10392,443,65532,509
10400,467,65531,497
10408,461,65532,470
10416,495,65531,500
10424,478,65531,466
10432,493,65532,485
10439,499,65531,491
10448,477,65532,468
10457,509,65531,504
10464,492,65531,472
10472,505,65532,492
10480,509,65531,495
10488,488,65532,478
10497,519,65531,514
10504,503,65531,483
10511,513,65532,500
10520,519,65531,506
10528,498,65532,487
10536,530,65531,523
10544,515,65531,493
10552,529,65532,516
10560,533,65531,518
10567,512,65531,498
10576,544,65531,536
10585,527,65531,504
10592,540,65532,527
10600,542,65531,530
10608,519,65532,511
10616,541,65531,542
10625,512,65531,504
10632,519,65532,521
10640,513,65531,519
10648,481,65532,490
10656,502,65531,517
10664,474,65531,476
10672,488,65532,491
10680,488,65531,487
10688,466,65532,467
10695,496,65531,499
10704,476,65531,464
10713,498,65532,490
10720,497,65531,486
10728,475,65532,467
10736,508,65531,503
10744,487,65531,470
10752,506,65532,495
10760,506,65531,494
10768,483,65532,474
10776,514,65531,510
10784,492,65531,476
10792,512,65532,506
10800,510,65531,499
10808,489,65532,481
10816,517,65531,514
10824,496,65531,480
10832,515,65532,509
10841,509,65531,497
10848,489,65532,483
10856,517,65531,516
10864,492,65531,480
10872,514,65532,509
10880,510,65531,499
10888,490,65532,483
10896,522,65531,518
10904,503,65531,485
10912,523,65532,513
10920,517,65531,500
10928,503,65532,492
10935,534,65531,528
10944,505,65531,493
10952,519,65532,516
10960,505,65531,500
10969,485,65532,489
10976,510,65531,518
10984,488,65531,480
10991,507,65532,503
11000,503,65531,493
11009,487,65532,482
11016,515,65531,514
11024,492,65531,479
11032,515,65532,510
11040,504,65531,494
11048,476,65532,482
11056,500,65531,507
11064,523,65531,484
11072,629,65532,546
11080,700,65531,580
11088,693,65532,604
11097,578,65531,612
11104,452,65531,536
11112,443,65532,527
11119,450,65531,494
11128,459,65532,476
11137,490,65531,501
11144,469,65531,463
11152,493,65532,489
11160,489,65531,476
11168,478,65532,471
11175,504,65531,502
11185,481,65531,467
11192,507,65532,496
11200,504,65531,486
11208,490,65532,480
11216,516,65531,509
11225,493,65531,477
11232,519,65532,512
11240,514,65531,497
11248,500,65532,489
11256,526,65531,519
11265,505,65531,488
11272,531,65532,521
11280,529,65531,509
11288,521,65532,506
11296,543,65531,535
11303,522,65531,503
11313,546,65532,539
11320,541,65531,523
11328,527,65532,517
11336,543,65531,543
11344,514,65531,505
11353,530,65532,536
11359,516,65531,515
11368,492,65532,499
11376,504,65531,521
11384,471,65531,477
11393,493,65532,505
11400,481,65531,479
11408,467,65532,470
11415,492,65531,498
11424,466,65531,460
11432,495,65532,493
11441,485,65531,470
11448,476,65532,468
11456,502,65531,497
11464,478,65531,465
11472,507,65532,501
11481,496,65531,477
11488,484,65532,475
11496,510,65531,505
11504,486,65531,472
11512,513,65532,508
11521,501,65531,483
11528,493,65532,485
11536,513,65531,511
11543,489,65531,477
11552,515,65532,512
11560,503,65531,487
11569,502,65532,493
11576,516,65531,515
11584,488,65531,479
11592,517,65532,514
11599,507,65531,491
11609,502,65532,494
11616,518,65531,518
11624,490,65531,481
11632,518,65532,515
11640,504,65531,490
11649,505,65532,496
11656,524,65531,518
11664,501,65531,487
11672,526,65532,521
11680,514,65531,498
11688,515,65532,503
11697,531,65531,521
11704,501,65531,492
11712,522,65532,525
11720,502,65531,495
11727,493,65532,494
11737,509,65531,509
11744,486,65531,479
11752,513,65532,513
11760,501,65531,487
11768,501,65532,493
11777,513,65531,509
11784,486,65531,477
11792,517,65532,513
11800,500,65531,487
11808,481,65532,486
11816,502,65531,502
11825,543,65531,489
11832,637,65532,557
11840,707,65531,579
11848,685,65532,610
11855,563,65531,606
11865,433,65531,527
11872,445,65532,527
11880,449,65531,483
11888,466,65532,480
11896,488,65531,492
11905,464,65531,461
11911,496,65532,494
11920,487,65531,472
11928,484,65532,476
11936,503,65531,494
11944,478,65531,466
11953,512,65531,504
11960,501,65531,479
11968,504,65532,490
11976,515,65531,505
11984,490,65531,476
11993,522,65531,514
12000,511,65531,490
12008,513,65532,498
12016,526,65531,516
12024,500,65531,486
12033,534,65531,525
12039,526,65531,502
12048,526,65532,510
12056,541,65531,530
12064,518,65531,501
12072,547,65532,539
12081,532,65531,510
12088,535,65532,522
12095,543,65531,541
12104,511,65531,505
12112,531,65532,538
12121,503,65531,501
12128,497,65532,504
12136,501,65531,512
12144,469,65531,476
12151,495,65532,507
12161,474,65531,472
12168,474,65532,476
12176,491,65531,491
12184,465,65531,460
12192,499,65531,496
12200,482,65531,466
12209,496,65532,485
12216,502,65531,494
12224,477,65531,465
12232,510,65531,503
12240,495,65531,474
12249,506,65532,493
12256,512,65531,504
12264,483,65531,473
12272,516,65531,510
12279,500,65531,482
12289,509,65532,498
12296,515,65531,510
12304,485,65531,477
12312,517,65532,514
12320,497,65531,483
12328,509,65532,499
12337,511,65531,502
12344,487,65531,480
12352,519,65532,516
12360,499,65531,485
12368,508,65532,500
12377,512,65531,504
12384,488,65531,480
12392,520,65531,517
12400,501,65531,485
12407,508,65532,499
12417,515,65531,506
12424,489,65531,481
12432,521,65531,517
12440,503,65531,487
12448,515,65532,505
12456,517,65531,509
12463,493,65531,484
12472,526,65531,521
12480,513,65531,493
12488,522,65532,510
12496,524,65531,515
12505,503,65532,493
12512,536,65532,529
12520,511,65531,496
12528,518,65532,512
12536,515,65531,516
12545,482,65532,487
12552,515,65532,519
12560,495,65531,485
12568,505,65532,500
12576,509,65531,502
12584,484,65531,480
12591,517,65532,515
12600,499,65531,484
12608,508,65532,499
12616,508,65531,503
12624,466,65531,474
12633,506,65531,508
12640,534,65531,489
12647,617,65532,534
12656,705,65531,587
12664,691,65531,597
12673,571,65531,611
12680,466,65531,540
12688,441,65532,520
12696,456,65531,502
12704,455,65532,472
12712,493,65531,501
12719,478,65531,468
12728,490,65532,483
12736,496,65531,489
12744,473,65532,465
12752,507,65531,501
12761,485,65531,468
12768,502,65532,489
12775,509,65531,498
12784,484,65532,474
12792,518,65531,511
12801,496,65531,478
12808,511,65532,498
12816,516,65531,503
12824,495,65531,484
12832,528,65531,521
12840,509,65531,488
12848,522,65532,508
12856,530,65531,516
12864,509,65531,496
12872,543,65531,534
12880,525,65531,502
12889,544,65532,533
12896,543,65531,529
12903,519,65531,507
12912,544,65531,542
12920,521,65531,507
12929,529,65532,531
12936,519,65531,523
12944,485,65532,494
12952,506,65531,520
12959,478,65531,480
12968,490,65532,499
12976,487,65531,493
12984,460,65532,464
12992,493,65531,496
13000,469,65531,460
13008,492,65532,485
13017,488,65531,475
13024,468,65532,462
13032,504,65531,498
13040,482,65531,465
13048,504,65532,491
13057,501,65531,485
13064,481,65531,471
13072,514,65531,509
13080,493,65531,475
13087,511,65532,499
13096,509,65531,495
13104,487,65531,478
13112,519,65531,515
13120,497,65531,481
13128,517,65532,510
13136,511,65531,500
13145,496,65532,490
13152,520,65531,519
13160,498,65531,484
13168,516,65532,511
13176,512,65531,502
13185,495,65532,490
13192,520,65531,519
13200,495,65531,484
13208,517,65532,510
13215,514,65531,504
13224,495,65532,490
13232,522,65531,520
13240,496,65531,485
13248,517,65532,509
13256,511,65531,499
13264,493,65532,489
13272,522,65531,521
13280,498,65531,485
13288,518,65532,509
13296,513,65531,502
13304,494,65532,490
13313,522,65531,520
13320,500,65531,486
13327,517,65532,508
13336,514,65531,503
13344,493,65532,489
13352,524,65531,521
13360,505,65531,488
13368,528,65532,518
13376,521,65531,508
13384,506,65532,498
13392,534,65531,528
13400,509,65531,494
13408,526,65532,521
13416,516,65531,511
13424,491,65532,494
13432,515,65531,522
13441,486,65531,482
13448,513,65532,508
13455,509,65531,501
13464,490,65532,486
13472,517,65531,517
13480,489,65531,480
13488,514,65532,506
13496,506,65531,495
13504,475,65532,481
13511,498,65531,509
13520,508,65531,480
13529,609,65532,540
13536,680,65531,567
13544,702,65532,596
13552,609,65531,618
13560,471,65531,545
13569,450,65532,541
13576,443,65531,496
13584,446,65532,471
13592,489,65531,499
13600,467,65531,462
13608,497,65532,496
13616,491,65531,479
13624,478,65532,470
13632,505,65531,501
13639,483,65531,467
13648,511,65532,503
13657,502,65531,483
13664,490,65532,480
13672,518,65531,512
13680,491,65531,477
13688,520,65532,512
13697,508,65531,490
13704,499,65532,489
13712,527,65531,522
13720,502,65531,487
13728,531,65532,521
13736,523,65531,502
13744,512,65532,501
13752,541,65531,533
13760,520,65531,501
13767,545,65532,534
13776,538,65531,517
13785,529,65532,519
13792,546,65531,544
13800,520,65531,509
13808,536,65532,540
13816,517,65531,512
13824,498,65532,504
13832,509,65531,525
13840,477,65531,483
13848,495,65532,509
13856,480,65531,481
13864,476,65532,479
13872,490,65531,500
13879,465,65531,461
13888,493,65532,493
13896,485,65531,472
13904,482,65532,473
13913,500,65531,495
13920,475,65531,463
13928,506,65532,498
13936,495,65531,476
13944,492,65532,481
13952,511,65531,506
13960,485,65531,473
13968,514,65532,506
13976,501,65531,485
13984,495,65532,487
13992,513,65531,506
14000,488,65531,477
14007,515,65532,509
14016,502,65531,489
14024,495,65532,489
14032,514,65531,509
14041,485,65531,477
14048,517,65532,513
14056,504,65531,489
14063,495,65532,488
14072,516,65531,510
14081,488,65531,478
14088,519,65532,514
14096,507,65531,491
14104,504,65532,495
14112,518,65531,514
14120,487,65531,479
14128,520,65532,515
14136,509,65531,494
14144,503,65532,495
14152,519,65531,516
14160,488,65531,481
14169,523,65532,518
14176,507,65531,491
14184,503,65532,495
14191,521,65531,518
14200,490,65531,482
14209,522,65532,519
14216,507,65531,492
14224,502,65532,495
14232,519,65531,513
14240,490,65531,482
14247,524,65532,519
14257,511,65531,492
14264,509,65532,498
14272,527,65531,519
14280,499,65531,488
14288,535,65531,527
14297,517,65531,498
14304,515,65532,507
14312,521,65531,521
14320,486,65531,486
14328,516,65532,519
14337,499,65531,488
14344,500,65532,494
14352,515,65531,513
14360,483,65531,478
14368,519,65532,515
14375,503,65531,487
14385,509,65532,499
14392,516,65531,514
14400,469,65531,474
14408,501,65532,507
14416,528,65531,488
14425,610,65532,532
14432,690,65531,586
14440,698,65531,594
14448,614,65532,622
14456,469,65531,550
14465,436,65532,522
14472,452,65531,510
14480,446,65531,467
14488,492,65531,500
14496,477,65531,468
14503,483,65532,477
14513,496,65531,488
14520,473,65531,463
14528,507,65532,500
14536,492,65531,473
14544,503,65532,489
14553,509,65531,498
14559,485,65531,473
14568,518,65532,511
14576,503,65531,484
14584,512,65532,498
14593,520,65531,509
14600,492,65531,481
14608,528,65532,520
14616,511,65531,491
14624,523,65532,508
14631,533,65531,521
14641,508,65531,495
14648,542,65532,533
14656,529,65531,506
14664,537,65532,522
14672,545,65531,532
14681,520,65531,508
14687,548,65532,544
14696,529,65531,515
14704,525,65532,523
14712,522,65531,527
14721,486,65531,494
14728,509,65531,523
14736,484,65531,486
14743,481,65532,489
14752,487,65531,494
14760,457,65531,462
14769,491,65531,496
14776,474,65531,464
14784,485,65532,477
14792,492,65531,486
14800,466,65532,459
14809,503,65531,496
14815,488,65531,468
14824,496,65532,482
14832,505,65531,494
14840,477,65531,467
14849,513,65531,505
14856,495,65531,475
14864,504,65532,491
14872,510,65531,499
14880,483,65531,475
14888,519,65531,512
14897,495,65531,479
14904,505,65532,495
14912,511,65531,503
14920,483,65531,477
14928,519,65531,514
14937,494,65531,480
14943,503,65532,494
14952,513,65531,505
14960,484,65531,478
14968,519,65531,515
14977,497,65531,481
14984,510,65532,499
14992,515,65531,507
14999,486,65531,478
15008,521,65531,516
15016,499,65531,483
15025,517,65532,506
15032,516,65531,509
15040,487,65531,481
15048,523,65531,518
15056,498,65531,484
15065,519,65532,508
15071,520,65531,514
15080,489,65531,484
15088,524,65531,520
15096,498,65531,485
15105,518,65532,507
15112,518,65531,509
15120,488,65531,484
15127,524,65531,520
15136,500,65531,486
15144,519,65532,507
15153,521,65531,507
15160,496,65531,488
15168,530,65531,525
15176,507,65531,491
15184,532,65532,519
15193,526,65531,513
15200,497,65531,491
15208,526,65531,526
15216,496,65531,489
15224,513,65532,511
15233,509,65531,504
15240,482,65532,482
15248,518,65531,517
15255,497,65531,483
15264,515,65532,506
15272,513,65531,503
15281,490,65532,486
15288,521,65531,518
15296,479,65531,478
15304,497,65532,497
15311,532,65531,505
15321,597,65532,518
15328,676,65531,587
15336,702,65531,592
15344,619,65532,610
15352,487,65531,566
15361,419,65532,510
15368,454,65531,517
15376,453,65531,471
15384,484,65532,487
15392,487,65531,483
15400,465,65532,464
15409,502,65531,499
15416,482,65531,465
15424,505,65532,493
15432,502,65531,488
15440,479,65532,471
15449,515,65531,508
15456,495,65531,476
15464,515,65532,501
15472,513,65531,499
15480,494,65532,485
15489,524,65531,519
15495,505,65531,486
15504,524,65532,510
15512,524,65531,511
15520,504,65532,494
15528,537,65531,529
15537,513,65531,495
15544,538,65532,522
15551,541,65531,525
15560,521,65532,508
15568,551,65531,543
15577,525,65531,509
15584,543,65532,532
15592,537,65531,528
15600,509,65532,509
15608,527,65531,537
15617,492,65531,495
15624,503,65532,509
15632,492,65531,501
15640,463,65532,476
15648,491,65531,504
15656,463,65531,463
15665,491,65532,494
15672,484,65531,479
15679,460,65532,458
15688,496,65531,494
15696,472,65531,459
15705,501,65532,493
15712,496,65531,484
15720,477,65532,468
15728,510,65531,503
15735,485,65531,469
15745,512,65532,501
15752,507,65531,495
15760,485,65532,477
15768,517,65531,511
15776,489,65531,476
15784,517,65532,507
15793,505,65531,490
15800,487,65532,482
15808,519,65531,516
15816,490,65531,480
15824,518,65532,509
15833,506,65531,492
15840,485,65532,483
15848,518,65531,516
15856,490,65531,480
15863,517,65532,508
15873,507,65531,494
15880,486,65532,483
15888,520,65531,518
15896,493,65531,481
15904,521,65532,515
15912,509,65531,496
15919,487,65532,483
15928,523,65531,519
15936,495,65531,483
15944,522,65532,515
15952,511,65531,498
15961,501,65532,494
15968,524,65531,522
15976,493,65531,484
15984,522,65532,516
15992,512,65531,501
16001,500,65532,495
16008,524,65531,523
16016,492,65531,485
16024,522,65532,515
16032,511,65531,497
16040,502,65532,495
16047,531,65531,526
16056,501,65531,490
16064,527,65532,519
16072,519,65531,504
16080,509,65532,501
16089,529,65531,525
16096,499,65531,491
16103,519,65532,517
16112,505,65531,499
16120,489,65532,491
16129,517,65531,516
16136,491,65531,482
16144,519,65532,514
16152,507,65531,496
16159,491,65532,487
16168,520,65531,515
16176,493,65531,482
16184,513,65532,512
16192,491,65531,490
16200,504,65532,490
16208,599,65531,540
16217,646,65531,543
16224,702,65532,611
16232,664,65531,611
16240,521,65532,575
16248,465,65531,560
16257,413,65531,488
16264,461,65532,501
16272,473,65531,477
16280,469,65532,472
16287,497,65531,499
16296,467,65531,461
16304,502,65532,492
16312,494,65531,478
16320,483,65532,475
16328,511,65531,502
16336,483,65531,470
16344,518,65532,507
16352,508,65531,489
16360,493,65532,484
16368,521,65531,513
16376,493,65531,481
16385,527,65532,518
16392,517,65531,498
16400,510,65532,498
16408,532,65531,524
16415,506,65531,491
16424,540,65532,530
16432,532,65531,511
16440,526,65532,510
16448,548,65531,538
16456,521,65531,505
16464,552,65532,543
16472,538,65531,520
16480,526,65532,519
16488,541,65531,544
16496,503,65531,503
16504,524,65532,533
16513,495,65531,498
16520,482,65532,493
16527,499,65531,515
16536,463,65531,471
16544,494,65532,501
16552,475,65531,472
16560,467,65532,468
16568,494,65531,493
16576,466,65531,459
16584,502,65532,496
16592,487,65531,470
16600,486,65532,475
16608,507,65531,500
16616,479,65531,467
16624,514,65532,505
16632,499,65531,480
16641,504,65532,491
16648,516,65531,511
16655,488,65531,477
16664,520,65532,514
16672,504,65531,488
16680,506,65532,496
16688,519,65531,517
16696,486,65531,479
16704,520,65532,516
16712,500,65531,487
16720,503,65532,496
16728,517,65531,513
16736,485,65531,479
16744,520,65532,515
16752,501,65531,488
16760,502,65532,495
16769,515,65531,508
16776,487,65531,480
16783,521,65532,515
16792,503,65531,490
16800,502,65532,495
16808,516,65531,510
16816,489,65531,482
16824,523,65532,518
16832,505,65531,491
16839,502,65532,494
16848,519,65531,512
16857,487,65531,481
16864,524,65532,518
16872,507,65531,492
16880,511,65532,500
16888,520,65531,515
16897,487,65531,482
16904,525,65532,520
16911,510,65531,495
16920,510,65532,501
16928,524,65531,518
16936,495,65531,486
16944,532,65532,524
16952,512,65531,497
16960,516,65532,505
16967,534,65531,526
16976,497,65531,491
16985,529,65532,527
16992,504,65531,496
17000,499,65532,498
17008,512,65531,511
17016,481,65531,479
17025,519,65531,516
17032,501,65531,487
17039,500,65532,491
17048,517,65531,509
17056,485,65531,478
17064,522,65531,516
17072,499,65531,487
17080,489,65532,490
17088,508,65531,503
17095,534,65531,489
17104,650,65531,562
17113,703,65531,578
17120,684,65532,612
17128,559,65531,603
17136,430,65531,525
17144,448,65532,528
17153,443,65531,476
17160,469,65532,481
17168,491,65531,496
17176,461,65531,460
17184,502,65532,497
17192,481,65531,466
17200,488,65532,478
17208,504,65531,493
17216,476,65531,466
17223,515,65532,506
17232,495,65531,476
17241,508,65532,494
17248,516,65531,506
17256,487,65531,477
17264,525,65531,516
17272,506,65531,486
17280,517,65532,502
17288,527,65531,517
17296,499,65531,487
17304,537,65531,526
17312,521,65531,498
17320,537,65532,520
17328,544,65531,531
17336,518,65531,503
17344,553,65531,543
17352,536,65531,514
17360,544,65532,531
17369,544,65531,537
17376,512,65531,508
17384,535,65532,541
17392,502,65531,502
17400,505,65532,512
17408,498,65531,511
17416,461,65531,474
17424,493,65532,505
17432,467,65531,467
17440,479,65532,480
17448,482,65531,480
17456,456,65531,455
17463,495,65532,492
17472,474,65531,461
17480,488,65532,477
17488,494,65531,483
17497,468,65531,461
17504,508,65531,499
17512,488,65531,469
17520,506,65532,491
17528,507,65531,495
17536,479,65531,471
17544,518,65531,509
17552,497,65531,480
17560,512,65532,498
17568,512,65531,503
17576,485,65532,480
17584,521,65532,515
17591,500,65531,485
17600,512,65532,501
17608,514,65531,507
17616,484,65532,481
17625,520,65531,516
17632,495,65531,482
17640,510,65532,499
17648,510,65531,502
17656,482,65532,480
17664,520,65531,515
17672,497,65531,483
17680,510,65532,499
17688,513,65531,504
17696,484,65531,480
17704,522,65531,518
17712,499,65531,484
17719,510,65532,499
17728,514,65531,506
17736,484,65531,481
17744,523,65531,518
17753,496,65531,483
17760,517,65532,505
17768,517,65531,508
17775,486,65531,482
17784,524,65531,519
17793,499,65531,484
17800,518,65532,505
17808,518,65531,510
17816,490,65532,486
17824,526,65531,521
17832,497,65531,485
17840,519,65532,506
17848,526,65531,514
17856,497,65532,490
17864,532,65531,526
17872,505,65531,492
17881,533,65532,519
17888,525,65531,515
17896,492,65532,492
17903,524,65531,525
17912,490,65531,486
17921,513,65532,509
17928,509,65531,505
17936,480,65531,480
17944,520,65531,516
17952,493,65531,480
17960,520,65532,511
17968,514,65531,505
17976,484,65531,480
17984,518,65531,516
17992,475,65531,474
18000,508,65532,502
18009,556,65531,508
18016,615,65532,528
18024,706,65531,603
18031,695,65531,601
18040,573,65532,606
18049,467,65531,555
18056,412,65532,499
18064,465,65531,513
18072,459,65531,470
18080,491,65532,493
18087,488,65531,485
18097,469,65532,468
18104,504,65531,500
18112,478,65531,466
18120,505,65532,492
18128,500,65531,485
18137,483,65532,475
18144,516,65531,510
18152,491,65531,475
18159,515,65532,501
18168,510,65531,496
18177,492,65532,484
18184,527,65531,519
18192,502,65531,485
18200,529,65532,517
18208,523,65531,507
18215,504,65532,494
18225,539,65531,530
18232,519,65531,498
18240,545,65532,529
18248,543,65531,523
18256,529,65532,515
18265,554,65531,547
18272,529,65531,513
18280,550,65532,541
18288,539,65531,532
18296,512,65532,515
18305,526,65531,540
18312,489,65531,496
18320,504,65532,514
18328,485,65531,494
18336,463,65532,477
18343,489,65531,503
18353,456,65531,460
18360,485,65532,483
18368,478,65531,473
18376,461,65532,460
18384,495,65531,491
18393,467,65531,456
18399,496,65532,483
18408,493,65531,478
18416,473,65532,466
18424,508,65531,500
18433,480,65531,466
18440,512,65532,499
18448,505,65531,490
18455,483,65532,476
18464,517,65531,511
18472,488,65531,475
18481,520,65532,511
18488,509,65531,496
18496,492,65532,485
18504,520,65531,516
18512,486,65531,478
18521,520,65532,514
18528,510,65531,499
18536,491,65532,486
18544,520,65531,518
18552,487,65531,480
18561,521,65532,514
18568,508,65531,495
18576,490,65532,486
18583,522,65531,519
18592,488,65531,480
18600,521,65532,514
18609,505,65531,492
18616,490,65532,487
18624,521,65531,517
18632,491,65531,482
18639,522,65532,514
18649,507,65531,494
18656,489,65532,487
18664,521,65531,518
18672,492,65531,483
18680,525,65532,519
18689,510,65531,495
18696,497,65532,492
18704,522,65531,521
18712,492,65531,484
18720,524,65532,518
18728,510,65531,496
18737,506,65532,498
18744,524,65531,523
18752,492,65531,485
18760,526,65532,520
18767,514,65531,500
18777,507,65532,499
18784,529,65531,527
18792,497,65531,489
18800,533,65532,523
18808,519,65531,502
18817,514,65532,505
18823,534,65531,533
18832,506,65531,496
18840,539,65532,530
18848,517,65531,506
18856,504,65532,505
18865,516,65531,520
18872,485,65531,486
18880,519,65532,519
18888,502,65531,492
18896,493,65532,490
18905,515,65531,511
18912,487,65531,479
18920,520,65532,515
18928,504,65531,491
18936,501,65532,494
18945,503,65531,508
18951,465,65531,470
18960,518,65532,508
18968,582,65531,511
18976,658,65532,554
18984,723,65531,617
18993,621,65531,588
19000,535,65532,593
19007,454,65531,534
19016,437,65532,503
19024,481,65531,512
19033,465,65531,471
19040,500,65532,502
19048,491,65531,479
19056,489,65532,482
19064,509,65531,501
19073,484,65531,472
19080,517,65532,507
19088,507,65531,488
19096,501,65532,491
19104,522,65531,512
19112,496,65531,483
19121,528,65532,521
19128,517,65531,496
19135,508,65532,497
19144,529,65531,520
19152,502,65531,490
19161,535,65532,528
19168,524,65531,504
19176,523,65532,509
19184,538,65531,530
19191,514,65531,499
19201,546,65532,538
19208,538,65531,516
19216,535,65532,520
19224,549,65531,542
19232,519,65531,508
19240,545,65532,544
19249,518,65531,510
19256,512,65532,514
19264,515,65531,529
19272,472,65531,485
19280,496,65532,513
19289,468,65531,475
19296,465,65532,475
19304,478,65531,487
19312,448,65531,451
19320,483,65532,486
19329,464,65531,455
19336,465,65532,460
19344,487,65531,480
19352,459,65531,449
19360,498,65532,489
19368,480,65531,461
19375,478,65532,466
19384,502,65531,490
19392,473,65531,460
19400,510,65532,499
19408,493,65531,473
19417,504,65532,489
19424,512,65531,504
19431,483,65531,472
19440,517,65532,510
19448,500,65531,482
19457,508,65532,495
19464,516,65531,511
19472,483,65531,476
19480,519,65532,513
19488,497,65531,483
19496,507,65532,497
19503,516,65531,514
19512,484,65531,477
19520,520,65532,515
19528,499,65531,485
19536,507,65532,498
19545,514,65531,506
19552,486,65531,480
19559,522,65532,517
19568,501,65531,488
19576,507,65532,498
19585,515,65531,508
19592,487,65531,481
19600,523,65532,518
19608,503,65531,488
19616,514,65532,503
19624,516,65531,510
19632,487,65531,481
19640,523,65532,518
19648,503,65531,489
19656,512,65532,502
19664,517,65531,510
19673,486,65531,482
19680,523,65532,519
19687,503,65531,490
19696,511,65532,501
19704,518,65531,511
19713,486,65531,482
19720,524,65532,519
19728,501,65531,488
19736,511,65532,502
19744,518,65531,509
19752,493,65531,485
19760,532,65532,524
19768,509,65531,494
19776,517,65532,507
19784,530,65531,517
19792,498,65531,491
19801,529,65531,528
19808,505,65531,494
19816,505,65532,502
19824,512,65531,510
19832,483,65531,481
19841,520,65531,518
19848,500,65531,486
19856,512,65532,501
19864,516,65531,508
19871,486,65531,480
19880,524,65531,518
19888,502,65531,487
19896,495,65532,496
19904,502,65531,502
19912,528,65531,490
19920,639,65531,558
19929,699,65531,571
19936,704,65532,619
19944,591,65531,613
19952,448,65531,540
19960,454,65531,540
19969,441,65531,483
19976,474,65532,490
19984,489,65531,493
19992,464,65531,465
19999,503,65531,501
20008,481,65531,467
20016,494,65532,483
20024,504,65531,494
20032,478,65531,468
20040,514,65531,507
20048,495,65531,475
20056,512,65532,497
20064,517,65531,504
20072,489,65531,478
20080,526,65531,517
20088,506,65531,486
20097,525,65532,512
20104,526,65531,515
20112,501,65532,490
20120,537,65531,527
20127,520,65531,498
20136,539,65532,523
20144,544,65531,530
20152,521,65531,505
20160,554,65531,543
20168,534,65531,512
20176,550,65532,536
20185,544,65531,531
20192,518,65531,513
20200,540,65531,545
20208,507,65531,506
20216,511,65532,519
20225,496,65531,507
20232,464,65531,479
20240,491,65531,507
20248,465,65531,466
20255,480,65532,482
20264,477,65531,477
20272,452,65531,454
20280,490,65531,489
20288,469,65531,455
20296,491,65532,481
20304,488,65531,477
20313,470,65532,463
20320,503,65531,496
20328,483,65531,464
20336,504,65532,490
20344,501,65531,488
20353,481,65532,472
20360,513,65531,506
20368,487,65531,472
20376,510,65532,497
20383,507,65531,497
20392,482,65532,478
20400,516,65531,511
20408,490,65531,477
20416,511,65532,499
20424,504,65531,495
20432,482,65532,479
20440,516,65531,513
20448,489,65531,477
20456,509,65532,499
20464,505,65531,496
20472,480,65532,478
20481,514,65531,512
20488,489,65531,476
20496,513,65532,503
20504,505,65531,496
20512,478,65532,476
20520,516,65531,512
20528,491,65531,477
20536,514,65532,503
20544,507,65531,498
20552,485,65532,481
20560,518,65531,515
20568,489,65531,478
20576,515,65532,503
20584,509,65531,501
20592,485,65532,482
20600,520,65531,516
20609,486,65531,478
20616,516,65532,503
20623,512,65531,504
20632,486,65532,483
20640,524,65531,518
20648,493,65531,482
20656,523,65532,507
20664,516,65531,504
20672,492,65532,488
20680,532,65531,524
20688,503,65531,489
20696,529,65532,518
20704,514,65531,508
20712,482,65532,487
20720,516,65531,519
20728,486,65531,480
20737,519,65532,514
20744,511,65531,500
20751,484,65532,481
20760,522,65531,517
20768,496,65531,482
20776,526,65532,516
20784,518,65531,506
20792,485,65532,487
20800,512,65531,516
20807,510,65531,486
20816,615,65532,545
20825,673,65531,569
20832,696,65532,595
20840,647,65531,631
20848,492,65531,559
20856,465,65532,551
20865,439,65531,500
20872,435,65532,476
20879,490,65531,504
20888,465,65531,464
20896,500,65532,494
20904,488,65531,476
20912,470,65532,467
20920,508,65531,502
20928,479,65531,466
20935,512,65532,498
20944,498,65531,483
20953,486,65532,479
20960,517,65531,512
20968,487,65531,476
20976,522,65532,511
20984,507,65531,492
20992,492,65532,485
21000,525,65531,519
21008,498,65531,484
21016,531,65532,518
21024,521,65531,503
21032,517,65532,503
21040,542,65531,534
21048,515,65531,499
21056,550,65532,535
21064,541,65531,522
21072,530,65532,518
21081,550,65531,545
21088,518,65531,509
21096,542,65532,539
21104,516,65531,514
21112,498,65532,507
21120,511,65531,527
21128,471,65531,482
21136,498,65532,506
21144,477,65531,481
21152,464,65532,473
21160,489,65531,493
21168,459,65531,458
21175,494,65532,487
21184,481,65531,470
21192,470,65532,466
21200,502,65531,493
21209,470,65531,460
21216,511,65532,498
21224,497,65531,480
21231,482,65532,474
21240,514,65531,504
21249,481,65531,471
21256,520,65532,507
21264,506,65531,491
21272,500,65532,489
21280,522,65531,515
21288,484,65531,478
21296,525,65532,514
21304,510,65531,498
21312,499,65532,493
21320,522,65531,519
21328,484,65531,480
21337,526,65532,518
21344,505,65531,492
21352,497,65532,491
21359,523,65531,520
21368,485,65531,481
21377,527,65532,518
21384,508,65531,494
21392,495,65532,491
21400,521,65531,515
21408,486,65531,480
21415,527,65532,518
21425,504,65531,491
21432,494,65532,490
21440,523,65531,517
21448,488,65531,482
21456,529,65532,521
21465,505,65531,492
21472,506,65532,497
21480,527,65531,521
21488,496,65531,487
21496,536,65532,526
21505,512,65531,498
21512,511,65532,501
21520,536,65531,528
21528,494,65531,490
21536,531,65532,527
21544,504,65531,497
21553,505,65532,502
21560,517,65531,521
21568,479,65531,480
21576,524,65532,518
21584,497,65531,488
21593,505,65532,497
21599,521,65531,520
21608,483,65531,480
21616,528,65532,518
21624,496,65531,489
21633,490,65532,492
21640,513,65531,510
21648,531,65531,491
21655,638,65532,559
21664,690,65531,575
21672,686,65532,608
21681,558,65531,598
21688,446,65531,530
21696,454,65532,532
21704,437,65531,481
21712,472,65532,484
21721,489,65531,492
21727,460,65531,460
21736,506,65532,498
21744,486,65531,471
21752,496,65532,483
21761,507,65531,497
21768,474,65531,466
21776,520,65532,507
21783,501,65531,483
21792,508,65532,493
21800,520,65531,509
21809,485,65531,477
21816,531,65532,518
21824,508,65531,491
21832,516,65532,503
21840,529,65531,517
21849,498,65531,489
21856,543,65532,529
21864,524,65531,504
21872,531,65532,515
21880,547,65531,532
21889,517,65531,505
21896,559,65532,546
21904,540,65531,520
21911,540,65532,527
21920,549,65531,542
21928,512,65531,510
21937,540,65531,543
21944,511,65531,509
21952,506,65532,512
21960,503,65531,516
21967,462,65531,476
21977,499,65531,508
21984,475,65531,474
21992,481,65532,479
22000,491,65531,491
22008,454,65531,456
22017,502,65532,495
22024,477,65531,464
22032,488,65532,476
22039,501,65531,493
22048,465,65531,460
22056,513,65532,501
22065,484,65531,469
22072,497,65532,483
22080,509,65531,497
22088,475,65531,468
22095,521,65532,509
22105,491,65531,477
22112,501,65532,489
22120,514,65531,505
22128,479,65531,474
22136,524,65531,514
22145,495,65531,481
22152,511,65532,498
22160,516,65531,509
22168,480,65531,477
22176,524,65531,515
22184,495,65531,482
22193,518,65532,504
22200,517,65531,511
22208,479,65531,478
22216,525,65531,516
22224,496,65531,483
22233,518,65532,504
22240,519,65531,512
22248,480,65531,478
22256,527,65532,517
22264,493,65531,483
22273,517,65532,503
22279,519,65531,514
22288,480,65531,479
22296,528,65532,518
22304,496,65531,484
22312,516,65532,504
22321,514,65531,505
22328,483,65531,481
22335,530,65532,520
22344,501,65531,488
22352,524,65532,508
22361,525,65531,512
22368,491,65531,487
22376,538,65531,527
22384,514,65531,496
22392,534,65532,519
22401,522,65531,517
22407,485,65531,488
22416,525,65531,524
22424,495,65531,489
22432,518,65532,508
22440,513,65531,509
22449,483,65532,485
22456,527,65531,520
22463,500,65531,488
22472,520,65532,507
22480,518,65531,511
22489,481,65532,484
22496,513,65532,516
22504,475,65531,476
22512,537,65532,506
22520,630,65531,540
22529,677,65532,566
22535,718,65532,633
22544,586,65531,589
22552,490,65532,568
22560,441,65531,529
22568,418,65532,481
22577,489,65531,509
22584,468,65531,469
22591,489,65532,484
22600,491,65531,486
22608,461,65531,462
22617,507,65531,500
22624,482,65531,467
22632,509,65532,492
22640,505,65531,493
22647,474,65531,469
22657,520,65531,509
22664,494,65531,477
22672,518,65532,500
22680,515,65531,503
22688,488,65532,482
22696,530,65531,519
22705,498,65531,484
22712,528,65532,509
22720,530,65531,516
22728,503,65532,494
22736,546,65531,532
22745,522,65531,501
22752,547,65532,525
22760,550,65531,530
22768,527,65532,514
22775,563,65531,552
22785,533,65531,518
22792,548,65532,537
22800,539,65531,536
22808,501,65532,509
22816,524,65531,538
22824,485,65531,493
22833,506,65532,517
22840,490,65531,500
22848,455,65531,469
22856,495,65531,502
22864,463,65531,462
22873,496,65532,491
22880,488,65531,483
22888,462,65532,461
22896,504,65531,497
22903,474,65531,461
22913,508,65532,493
22920,500,65531,490
22928,471,65532,467
22936,514,65531,504
22944,479,65531,468
22952,516,65532,500
22959,508,65531,498
22968,476,65532,473
22976,519,65531,510
22984,483,65531,473
22992,517,65532,503
23001,501,65531,490
23008,476,65532,475
23016,518,65531,512
23024,484,65531,475
23032,516,65532,502
23041,502,65531,492
23048,475,65532,475
23056,518,65531,513
23064,485,65531,475
23072,520,65532,508
23080,504,65531,494
23087,476,65531,475
23096,522,65531,514
23104,490,65531,478
23112,522,65532,510
23120,509,65531,498
23129,495,65532,489
23136,525,65531,520
23143,496,65531,484
23152,526,65532,514
23160,516,65531,504
23169,499,65532,493
23176,530,65531,524
23184,497,65531,488
23192,530,65532,518
23200,515,65531,502
23208,501,65532,497
23216,535,65531,529
23224,502,65531,492
23232,535,65532,521
23240,524,65531,510
23248,504,65532,501
23257,535,65531,530
23264,510,65531,496
23271,539,65532,524
23280,520,65531,512
23288,494,65532,498
23297,519,65531,524
23304,486,65531,485
23312,520,65532,516
23320,504,65531,499
23327,481,65532,483
23336,518,65531,515
23344,487,65531,478
23352,521,65532,510
23360,506,65531,497
23368,490,65532,487
23376,509,65531,513
23385,454,65531,466
23392,511,65532,499
23400,561,65531,508
23408,632,65532,536
23416,713,65531,609
23425,641,65531,586
23432,555,65532,593
23440,442,65531,533
23448,411,65532,492
23455,468,65531,507
23464,448,65531,461
23472,492,65532,487
23480,479,65531,473
23488,463,65532,463
23496,499,65531,493
23504,465,65531,458
23512,509,65532,495
23520,494,65531,479
23528,475,65532,469
23536,512,65531,502
23544,478,65531,467
23553,522,65532,508
23560,505,65531,490
23568,496,65532,485
23576,524,65531,515
23584,492,65531,480
23592,534,65532,520
23600,521,65531,504
23608,510,65532,497
23616,541,65531,530
23624,508,65531,494
23632,552,65532,535
23640,538,65531,516
23648,528,65532,514
23656,556,65531,547
23664,519,65531,509
23672,554,65532,545
23681,525,65531,517
23688,507,65532,511
23695,525,65531,537
23704,476,65531,490
23712,508,65532,517
23720,475,65531,484
23728,458,65532,473
23736,488,65531,496
23744,450,65531,456
23751,494,65532,489
23760,472,65531,464
23769,471,65532,466
23776,497,65531,492
23784,463,65531,456
23792,510,65532,496
23800,487,65531,471
23809,495,65532,480
23816,511,65531,504
23824,476,65531,468
23832,521,65532,507
23840,499,65531,484
23848,503,65532,490
23856,520,65531,515
23864,479,65531,476
23872,526,65532,515
23879,504,65531,491
23888,504,65532,495
23897,520,65531,515
23904,483,65531,479
23912,528,65532,517
23920,500,65531,489
23928,502,65532,495
23936,520,65531,516
23944,482,65531,479
23952,527,65532,516
23960,501,65531,490
23968,500,65532,494
23976,519,65531,511
23984,484,65531,480
23991,529,65532,516
24000,503,65531,492
24008,500,65532,494
24016,520,65531,513
24025,479,65531,479
24032,530,65532,519
24040,503,65531,491
24048,511,65532,500
24056,522,65531,515
24064,480,65531,480
24072,532,65532,520
24080,504,65531,493
24088,508,65532,499
24096,521,65531,516
24104,475,65531,478
24112,531,65532,518
24119,503,65531,493
24128,504,65532,496
24136,519,65531,515
24144,473,65531,476
24153,529,65532,517
24160,497,65531,486
24168,501,65532,492
24175,521,65531,515
24184,474,65531,476
24193,532,65532,518
24200,502,65531,489
24208,506,65532,495
24216,525,65531,514
24224,481,65531,480
24232,539,65531,522
24240,512,65531,495
24248,506,65532,498
24256,522,65531,516
24264,472,65531,479
24272,525,65531,517
24281,488,65531,482
24288,504,65532,494
24296,516,65531,510
24303,471,65531,473
24312,529,65532,515
24321,493,65531,483
24328,506,65532,494
24336,520,65531,512
24344,465,65531,472
24352,515,65532,510
24359,479,65531,476
24369,558,65532,508
24376,637,65531,555
24384,674,65531,563
24392,696,65532,626
24400,524,65531,567
24409,466,65532,544
24416,441,65531,519
24424,409,65531,464
24432,497,65532,500
24440,461,65531,463
24449,489,65532,479
24456,495,65531,490
24464,449,65531,454
24472,516,65531,498
24480,475,65531,464
24487,500,65532,481
24497,504,65531,492
24504,461,65531,462
24512,528,65531,506
24520,487,65531,474
24528,522,65532,497
24537,514,65531,503
24544,468,65531,472
24552,538,65532,517
24560,498,65531,485
24568,531,65532,507
24577,528,65531,515
24584,483,65531,483
24592,554,65532,529
24600,509,65531,496
24608,545,65532,520
24615,545,65531,531
24625,501,65531,501
24632,563,65532,544
24640,514,65531,508
24648,538,65532,525
24656,523,65531,525
24665,472,65531,491
24671,528,65532,527
24680,472,65531,484
24688,491,65532,494
24696,484,65531,494
24705,437,65531,458
24712,505,65531,497
24720,463,65531,460
24728,499,65532,482
24736,494,65531,485
24744,452,65531,455
24753,520,65531,500
24760,485,65531,468
24768,517,65532,492
24776,515,65531,500
24784,476,65532,474
24793,537,65531,516
24799,503,65531,486
24808,530,65532,506
24816,530,65531,516
24824,489,65531,488
24833,548,65531,529
24840,509,65531,495
24848,536,65532,516
24855,537,65531,526
24864,495,65531,496
24872,551,65531,536
24881,507,65531,499
24888,535,65532,519
24896,533,65531,524
24904,494,65531,497
24912,549,65531,537
24921,506,65531,498
24928,532,65532,517
24936,532,65531,524
24944,490,65531,494
24952,546,65531,534
24961,503,65531,496
24968,539,65532,521
24976,529,65531,523
24983,484,65531,491
24992,542,65531,531
25000,496,65531,492
25009,538,65532,522
25016,523,65531,519
25024,479,65532,488
25032,537,65531,526
25039,492,65531,488
25049,533,65532,516
25056,519,65531,515
25064,473,65531,483
25072,535,65531,522
25080,482,65531,481
25089,529,65532,511
25096,512,65531,506
25104,470,65531,478
25112,534,65531,519
25120,481,65531,480
25128,528,65532,508
25137,505,65531,499
25144,467,65531,476
25152,530,65531,517
25160,481,65531,477
25167,525,65532,504
25177,505,65531,498
25184,465,65531,474
25192,531,65531,516
25200,482,65531,477
25208,532,65532,511
25217,507,65531,500
25223,466,65531,474
25232,539,65531,518
25240,489,65531,481
25248,541,65532,515
25256,517,65531,508
25265,493,65532,492
25272,542,65531,528
25280,474,65531,483
25288,528,65532,512
25296,498,65531,502
25305,463,65532,478
25312,526,65531,514
25320,461,65531,470
25328,523,65532,501
25336,490,65531,488
25345,461,65532,471
25351,529,65531,510
25360,463,65531,467
25368,518,65532,496
25376,471,65531,481
25384,442,65532,459
25393,573,65531,516
25400,596,65531,511
25407,691,65532,577
25416,661,65531,594
25424,506,65532,554
25433,466,65531,549
25440,393,65531,475
25448,477,65532,494
25456,469,65531,477
25464,451,65532,460
25473,507,65531,495
25480,455,65531,454
25488,519,65532,490
25496,492,65531,483
25504,464,65532,466
25512,525,65531,505
25521,458,65531,462
25528,533,65532,500
25535,507,65531,496
25544,474,65532,477
25552,537,65531,517
25561,469,65531,473
25568,542,65532,509
25576,512,65531,500
25584,483,65532,486
25591,550,65531,527
25601,484,65531,485
25608,553,65532,519
25616,530,65531,515
25624,498,65532,499
25632,563,65531,540
25640,508,65531,501
25649,577,65532,547
25656,545,65531,531
25664,506,65532,511
25672,559,65531,548
25680,500,65531,504
25689,549,65532,540
25696,513,65531,517
25704,480,65532,496
25712,520,65531,525
25719,464,65531,478
25729,521,65532,513
25736,497,65531,496
25744,469,65532,477
25752,522,65531,512
25760,472,65531,471
25768,534,65532,511
25775,517,65531,502
25784,489,65532,485
25792,542,65531,524
25800,495,65531,486
25808,552,65532,526
25817,525,65531,507
25824,505,65532,501
25832,554,65531,538
25840,510,65531,501
25848,561,65532,539
25857,533,65531,519
25864,509,65532,510
25872,556,65531,546
25880,510,65531,506
25888,560,65532,545
25896,529,65531,520
25903,501,65532,507
25912,549,65531,543
25920,502,65531,501
25928,549,65532,538
25936,520,65531,514
25945,515,65532,512
25952,540,65531,539
25959,494,65531,496
25968,542,65532,531
25976,514,65531,509
25985,506,65532,505
25992,534,65531,532
26000,483,65531,489
26008,537,65532,524
26016,504,65531,499
26024,500,65532,498
26032,533,65531,528
26040,481,65531,485
26048,534,65532,520
26056,503,65531,497
26064,494,65532,494
26073,522,65531,515
26080,480,65531,480
26087,532,65532,515
26096,503,65531,495
26104,490,65532,490
26113,521,65531,514
26120,479,65531,478
26128,532,65532,517
26136,502,65531,493
26143,487,65532,487
26152,522,65531,513
26160,481,65531,478
26168,533,65532,517
26176,504,65531,494
26184,502,65532,494
26192,526,65531,518
26201,479,65531,479
26208,539,65532,520
26216,511,65531,500
26224,508,65532,499
26232,538,65531,526
26241,484,65531,485
26248,537,65532,523
26256,499,65531,496
26264,489,65532,493
26272,517,65531,518
26280,465,65531,474
26288,524,65532,510
26296,494,65531,487
26304,487,65532,485
26312,516,65531,507
26320,469,65531,471
26328,531,65532,513
26336,496,65531,486
26344,474,65532,479
26352,502,65531,501
26360,489,65531,472
26369,626,65532,543
26376,658,65531,555
26383,679,65532,586
26392,605,65531,605
26400,450,65531,531
26408,461,65532,535
26416,423,65531,481
26424,443,65532,468
26432,486,65531,489
26440,434,65531,446
26448,507,65532,489
26456,469,65531,460
26464,472,65532,463
26472,502,65531,491
26480,446,65531,450
26488,518,65532,496
26497,472,65531,463
26504,478,65532,470
26511,512,65531,500
26520,454,65531,458
26528,528,65532,504
26536,482,65531,472
26544,485,65532,477
26552,519,65531,503
26560,465,65531,466
26567,538,65532,512
26576,495,65531,483
26585,514,65532,496
26592,534,65531,518
26600,485,65531,483
26608,554,65532,528
26616,515,65531,499
26625,540,65532,517
26632,544,65531,535
26640,491,65531,495
26648,547,65532,535
26656,499,65531,500
26664,508,65532,507
26672,508,65531,519
26680,443,65531,468
26688,508,65532,506
26695,464,65531,470
26704,482,65532,478
26713,491,65531,489
26720,439,65531,450
26728,514,65532,495
26736,470,65531,462
26744,495,65532,478
26753,502,65531,489
26760,454,65531,458
26768,533,65532,505
26776,484,65531,474
26784,504,65532,488
26792,513,65531,501
26800,462,65531,468
26808,538,65532,514
26816,488,65531,481
26823,502,65532,490
26832,514,65531,505
26841,458,65531,468
26848,538,65532,514
26856,489,65531,482
26864,517,65532,499
26872,516,65531,509
26880,458,65531,471
26888,539,65532,516
26896,491,65531,485
26904,515,65532,498
26912,517,65531,510
26920,459,65531,472
26928,539,65532,517
26935,494,65531,486
26944,512,65532,498
26952,521,65531,512
26960,462,65531,473
26969,541,65532,518
26976,492,65531,484
26984,513,65532,498
26992,522,65531,510
27000,470,65531,477
27008,545,65532,522
27016,500,65531,490
27024,514,65532,501
27032,529,65531,516
27040,477,65531,482
27048,549,65531,527
27056,507,65531,495
27064,532,65532,512
27072,534,65531,523
27080,481,65531,487
27088,552,65531,531
27097,506,65531,496
27104,535,65532,516
27112,543,65531,530
27120,490,65531,495
27128,557,65531,538
27136,517,65531,504
27144,542,65532,523
27152,546,65531,537
27160,488,65531,498
27168,547,65532,537
27176,493,65531,496
27184,517,65532,510
27191,530,65531,525
27200,478,65531,486
27208,544,65532,528
27216,498,65531,491
27225,532,65532,514
27232,529,65531,520
27240,484,65531,488
27248,542,65531,528
27256,487,65531,488
27264,517,65532,506
27272,564,65531,527
27280,600,65531,527
27288,707,65531,605
27296,702,65531,605
27304,610,65532,617
27312,510,65531,584
27319,417,65531,511
27328,475,65531,526
27336,459,65531,480
27344,504,65532,499
27353,501,65531,498
27360,463,65531,469
27368,523,65531,510
27375,490,65531,477
27384,517,65532,500
27393,514,65531,503
27400,476,65531,475
27408,533,65532,517
27416,496,65531,483
27424,526,65532,507
27432,519,65531,506
27440,485,65531,484
27448,540,65532,525
27456,504,65531,492
27464,532,65532,514
27472,529,65531,516
27481,497,65532,495
27488,549,65531,535
27496,519,65531,502
27503,543,65532,523
27512,546,65531,529
27521,515,65532,508
27528,562,65531,548
27536,534,65531,516
27544,554,65532,540
27552,543,65531,537
27559,502,65532,508
27569,534,65531,541
27576,496,65531,499
27584,507,65532,513
27592,493,65531,506
27600,455,65532,475
27609,496,65531,504
27616,461,65531,462
27624,489,65532,483
27632,487,65531,484
27640,456,65532,459
27649,503,65531,495
27656,471,65531,459
27664,498,65532,482
27672,496,65531,483
27680,467,65532,464
27687,516,65531,503
27697,480,65531,468
27704,508,65532,491
27712,508,65531,494
27720,476,65532,473
27728,521,65531,512
27737,488,65531,476
27744,521,65532,504
27752,514,65531,502
27760,481,65532,479
27768,524,65531,517
27777,491,65531,480
27784,519,65532,505
27792,513,65531,504
27800,486,65532,484
27808,524,65531,519
27816,493,65531,482
27825,523,65532,513
27832,517,65531,507
27840,487,65532,485
27848,526,65531,520
27856,492,65531,483
27865,523,65532,513
27871,518,65531,510
27880,488,65532,486
27888,527,65531,521
27896,497,65531,485
27905,523,65532,514
27912,518,65531,507
27920,491,65532,488
27927,528,65531,523
27936,502,65531,489
27944,523,65532,514
27953,520,65531,504
27960,498,65532,492
27968,531,65531,528
27976,511,65531,494
27984,533,65532,526
27993,535,65531,514
27999,515,65532,502
28008,544,65531,539
28016,531,65531,507
28024,550,65532,539
28033,548,65531,529
28040,524,65532,516
28048,543,65531,547
28055,521,65531,510
28064,530,65532,534
28072,530,65531,522
28081,514,65532,510
28088,533,65531,538
28096,515,65531,503
28104,527,65532,528
28111,531,65531,519
28121,513,65532,506
28128,530,65531,534
28136,503,65531,497
28144,501,65532,514
28152,539,65531,509
28161,607,65532,532
28168,700,65531,604
28176,747,65531,617
28184,674,65532,646
28192,537,65531,600
28200,462,65532,551
28209,472,65531,547
28216,482,65531,501
28224,499,65532,521
28232,509,65531,504
28239,495,65532,491
28249,513,65531,519
28256,507,65531,488
28264,509,65532,513
28272,518,65531,503
28280,505,65532,495
28289,519,65531,522
28295,513,65531,491
28304,513,65532,516
28312,523,65531,507
28320,509,65532,499
28328,523,65531,527
28337,513,65531,494
28344,517,65532,519
28351,528,65531,513
28360,515,65532,503
28368,531,65531,533
28377,526,65531,502
28384,531,65532,527
28392,545,65531,520
28400,535,65532,517
28408,551,65531,545
28417,541,65531,517
28424,539,65532,539
28432,544,65531,530
28440,522,65532,518
28448,522,65531,539
28456,498,65531,499
28465,488,65532,520
28472,485,65531,492
28479,461,65532,473
28488,467,65531,492
28496,454,65531,453
28505,456,65532,478
28512,462,65531,458
28520,449,65532,447
28528,464,65531,472
28536,456,65531,439
28545,462,65532,470
28552,473,65531,456
28560,460,65532,448
28568,476,65531,477
28576,468,65531,446
28584,474,65532,477
28593,482,65531,457
28600,471,65532,459
28607,486,65531,489
28616,479,65531,457
28624,483,65532,486
28633,489,65531,467
28640,478,65532,466
28648,493,65531,494
28656,482,65531,464
28663,484,65532,490
28673,491,65531,472
28680,479,65532,469
28688,493,65531,497
28696,485,65531,466
28704,488,65532,497
28712,494,65531,474
28721,483,65532,478
28728,498,65531,499
28736,491,65531,469
28744,492,65532,499
28752,502,65531,479
28761,489,65532,482
28768,503,65531,505
28776,499,65531,474
28784,505,65532,506
28791,515,65531,490
28801,503,65532,492
28808,517,65531,517
28816,515,65531,488
28824,515,65532,518
28832,517,65531,497
28840,500,65532,498
28847,504,65531,518
28856,496,65531,483
28864,497,65532,508
28872,505,65531,488
28880,495,65532,489
28889,509,65531,507
28896,501,65531,482
28904,500,65532,512
28912,509,65531,488
28920,497,65532,489
28929,499,65531,504
28936,486,65531,475
28944,516,65532,511
28952,602,65531,517
28960,665,65532,561
28968,720,65531,619
28975,677,65531,609
28984,539,65532,608
28992,464,65531,545
29000,431,65532,510
29008,452,65531,507
29017,464,65532,469
29024,471,65532,493
29031,480,65531,471
29040,473,65532,469
29048,484,65531,488
29057,480,65532,459
29064,485,65532,490
29072,489,65531,469
29080,489,65532,474
29088,496,65531,493
29096,493,65532,468
29103,497,65531,499
29112,499,65531,480
29120,500,65532,484
29128,504,65531,503
29136,503,65532,478
29145,511,65531,512
29152,510,65531,489
29159,514,65532,493
29168,522,65531,516
29176,523,65532,492
29185,531,65531,528
29192,532,65531,507
29200,534,65532,514
29208,540,65531,534
29216,532,65532,506
29224,533,65531,539
29231,524,65531,513
29240,512,65532,510
29248,501,65531,522
29256,484,65532,483
29264,478,65531,506
29273,466,65531,469
29280,461,65532,469
29287,462,65531,483
29296,455,65532,447
29304,461,65531,477
29313,458,65531,447
29320,460,65532,452
29328,467,65531,469
29336,466,65532,444
29344,472,65531,477
29352,472,65531,450
29359,473,65532,457
29368,478,65531,478
29376,478,65532,453
29384,484,65531,486
29392,484,65531,461
29401,487,65532,474
29408,489,65531,488
29415,486,65532,462
29424,492,65531,495
29432,489,65531,469
29441,490,65532,481
29448,495,65531,495
29456,491,65532,467
29464,494,65531,500
29472,490,65531,471
29480,493,65532,485
29487,502,65531,502
29496,498,65532,473
29504,498,65531,505
29512,501,65531,479
29520,507,65532,493
29529,508,65531,501
29536,501,65532,481
29543,498,65531,510
29552,486,65531,479
29560,486,65532,485
29569,487,65531,492
29576,484,65532,468
29584,488,65531,499
29592,488,65531,471
29600,490,65532,483
29608,492,65531,489
29615,489,65532,467
29624,496,65531,500
29632,487,65531,472
29640,481,65532,480
29648,503,65531,492
29657,579,65532,497
29664,639,65531,563
29671,687,65531,576
29680,683,65532,610
29688,575,65531,603
29697,464,65532,538
29704,437,65531,533
29712,432,65531,479
29720,450,65532,477
29728,461,65531,476
29736,462,65532,452
29744,471,65531,483
29752,472,65531,456
29760,479,65532,468
29768,482,65531,477
29776,481,65532,457
29785,488,65531,492
29792,485,65531,464
29799,491,65532,475
29808,497,65531,488
29816,492,65532,467
29825,502,65531,503
29832,498,65531,476
29840,505,65532,490
29848,510,65531,501
29855,511,65532,481
29864,516,65531,516
29872,516,65531,491
29880,524,65532,505
29888,531,65531,518
29896,526,65532,498
29904,537,65531,534
29913,531,65531,505
29920,533,65532,521
29927,537,65531,533
29936,521,65532,505
29944,519,65531,534
29953,502,65531,496
29960,495,65532,503
29968,490,65531,504
29976,481,65532,477
29984,480,65531,503
29992,473,65531,466
30000,474,65532,475
30008,477,65531,482
30016,469,65532,456
30024,478,65531,488
30032,478,65531,458
30041,484,65532,480
30048,485,65531,481
30055,486,65532,460
30064,494,65531,495
30072,490,65531,466
30081,492,65532,487
30088,503,65531,493
30096,498,65532,472
30104,500,65531,504
30111,500,65531,476
30120,503,65532,495
30128,507,65531,502
30136,508,65532,481
30144,514,65531,515
30152,507,65531,484
30160,510,65532,504
30169,520,65531,504
30176,519,65532,493
30184,518,65531,524
30192,508,65531,492
30200,501,65532,505
30209,497,65531,500
30216,494,65532,481
30224,498,65531,511
30232,494,65531,478
30239,498,65532,493
30248,500,65531,495
30256,497,65532,477
30264,503,65531,510
30272,502,65531,480
30280,503,65532,500
30288,494,65531,494
30297,493,65532,480
30304,530,65531,517
30312,603,65531,516
30320,677,65532,575
30328,719,65531,615
30337,651,65532,607
30344,552,65531,611
30352,461,65531,538
30360,444,65532,522
30367,452,65531,502
30376,467,65532,475
30384,479,65531,499
30392,478,65531,466
30400,482,65532,482
30408,486,65531,480
30416,486,65532,468
30425,495,65531,500
30432,491,65531,469
30440,495,65532,486
30448,500,65531,489
30456,500,65532,476
30465,505,65531,509
30472,504,65531,480
30480,508,65532,501
30488,510,65531,500
30495,512,65532,486
30504,519,65531,520
30512,518,65531,492
30520,522,65532,512
30528,528,65531,514
30536,529,65532,503
30544,538,65531,536
30552,536,65531,507
30560,539,65532,528
30568,540,65531,531
30576,534,65532,515
30584,535,65531,543
30593,522,65532,509
30600,516,65532,522
30608,508,65531,514
30616,495,65532,495
30624,494,65531,518
30632,484,65532,480
30640,484,65532,492
30648,482,65531,487
30656,480,65532,470
30664,486,65531,499
30672,483,65532,466
30680,487,65532,487
30688,489,65531,483
30696,489,65532,468
30704,497,65531,501
30712,494,65531,470
30721,500,65532,499
30728,501,65531,491
30735,500,65532,476
30744,507,65531,510
30752,504,65531,479
30760,507,65532,506
30768,508,65531,500
30776,505,65532,485
30784,510,65531,516
30792,507,65532,485
30800,513,65532,511
30808,515,65531,502
30816,513,65532,492
30824,518,65531,523
30832,520,65532,494
30840,525,65532,520
30849,519,65531,506
30856,511,65532,498
30863,508,65531,524
30872,496,65532,488
30880,498,65532,506
30888,499,65531,493
30896,495,65532,483
30904,501,65531,513
30912,498,65531,480
30920,501,65532,506
30928,504,65531,491
30937,501,65532,484
30944,506,65531,513
30952,491,65531,478
30960,484,65532,499
30968,521,65531,494
30977,610,65532,521
30984,687,65531,590
30991,740,65531,605
31000,656,65532,635
31008,527,65531,590
31016,449,65532,538
31024,446,65531,532
31032,460,65531,483
31040,469,65532,497
31047,481,65531,484
31056,473,65532,470
31065,485,65531,496
31072,483,65531,464
31080,482,65532,485
31088,495,65531,476
31096,488,65532,472
31105,498,65531,499
31112,496,65531,471
31120,495,65532,493
31128,507,65531,487
31136,498,65532,482
31144,511,65531,511
31152,508,65531,483
31160,509,65532,510
31168,521,65531,500
31175,512,65532,493
31184,528,65531,525
31193,527,65531,497
31200,530,65532,526
31208,543,65531,519
31216,534,65532,515
31224,548,65531,544
31232,543,65531,515
31240,538,65532,540
31248,543,65531,530
31256,519,65532,516
31264,518,65531,538
31272,499,65531,497
31280,489,65532,512
31288,490,65531,492
31296,472,65532,480
31304,478,65531,501
31312,471,65531,464
31321,470,65532,488
31328,481,65531,470
31336,472,65532,463
31344,486,65531,489
31352,481,65531,460
31360,481,65532,487
31368,494,65531,475
31376,483,65532,468
31384,497,65531,497
31392,493,65531,469
31400,495,65532,500
31408,505,65531,485
31415,494,65532,476
31424,507,65531,507
31432,502,65531,478
31440,502,65532,508
31449,511,65531,489
31456,503,65532,489
31464,519,65531,518
31472,514,65531,488
31480,513,65532,519
31488,525,65531,502
31496,517,65532,500
31504,528,65531,529
31512,514,65531,496
31520,505,65532,520
31528,503,65531,495
31536,490,65532,490
31543,499,65531,515
31552,496,65531,480
31560,494,65532,506
31568,501,65531,485
31577,491,65532,485
31584,504,65531,508
31592,499,65531,478
31599,498,65532,504
31608,504,65531,486
31617,477,65532,480
31624,484,65531,500
31632,525,65531,481
31640,633,65532,550
31648,728,65531,581
31656,729,65532,623
31664,626,65531,637
31672,493,65531,564
31680,440,65532,550
31688,454,65531,503
31696,461,65532,489
31705,479,65531,500
31712,472,65531,467
31720,473,65532,491
31727,484,65531,471
31736,474,65532,469
31745,489,65531,490
31752,483,65531,462
31760,485,65532,491
31768,496,65531,473
31776,487,65532,476
31784,504,65531,496
31792,498,65531,474
31800,499,65532,501
31808,511,65531,486
31816,504,65532,489
31824,521,65531,511
31833,516,65532,488
31840,523,65532,522
31848,535,65531,505
31855,527,65532,507
31864,546,65531,533
31873,542,65532,510
31880,544,65532,544
31888,556,65531,527
31896,543,65532,530
31904,552,65531,549
31911,537,65531,520
31921,526,65532,545
31928,524,65531,518
31936,498,65532,509
31944,502,65531,521
31952,485,65532,483
31961,483,65532,508
31968,486,65531,479
31976,475,65532,477
31984,487,65531,496
31992,480,65532,464
32001,484,65532,495
32008,493,65531,472
32016,483,65532,474
32024,497,65531,493
32032,489,65532,468
32039,492,65532,499
32049,500,65531,476
32056,492,65532,481
32064,506,65531,502
32072,497,65532,475
32080,501,65532,507
32089,507,65531,483
32096,496,65532,489
32104,510,65531,507
32112,503,65531,480
32120,505,65532,512
32129,511,65531,487
32136,498,65532,492
32144,510,65531,511
32152,500,65532,481
32160,503,65532,512
32168,509,65531,488
32177,498,65532,495
32184,509,65531,511
32192,500,65532,480
32200,504,65532,512
32208,509,65531,486
32217,500,65532,496
32223,512,65531,514
32232,505,65532,483
32240,506,65532,515
32248,512,65531,490
32257,506,65532,499
32264,523,65531,516
32272,517,65532,492
32279,518,65532,523
32288,526,65531,500
32296,521,65532,510
32305,534,65531,523
32312,520,65532,501
32320,516,65532,529
32328,514,65531,500
32335,498,65532,502
32345,510,65531,512
32352,500,65531,487
32360,502,65532,515
32368,507,65531,489
32376,497,65532,496
32385,510,65531,505
32391,502,65531,483
32400,503,65532,513
32408,505,65531,487
32416,476,65532,488
32424,492,65531,496
32433,543,65532,489
32440,628,65532,555
32447,716,65531,580
32456,715,65532,621
32464,599,65531,619
32473,468,65532,549
32480,441,65532,542
32488,457,65531,493
32496,465,65532,490
32503,483,65531,498
32513,473,65532,467
32520,478,65532,494
32528,486,65531,469
32536,479,65532,476
32544,496,65531,488
32552,487,65532,466
32561,496,65532,500
32568,500,65531,475
32576,492,65532,483
32584,508,65531,497
32592,498,65532,476
32601,507,65532,510
32608,512,65531,485
32616,504,65532,496
32624,520,65531,508
32631,512,65532,486
32641,521,65532,521
32648,530,65531,499
32656,525,65532,510
32664,543,65531,527
32672,536,65532,507
32680,544,65532,541
32687,551,65531,520
32696,540,65532,529
32704,551,65531,543
32712,534,65532,516
32720,529,65532,544
32729,518,65531,509
32736,499,65532,513
32744,502,65531,515
32752,482,65532,484
32760,480,65532,508
32769,479,65531,472
32776,470,65532,477
32784,484,65531,486
32792,474,65532,461
32800,483,65532,493
32808,487,65531,464
32815,480,65532,473
32824,497,65531,488
32832,488,65532,466
32840,497,65532,500
32848,500,65531,473
32857,495,65532,492
32864,508,65531,498
32871,499,65532,475
32880,505,65532,509
32888,509,65531,482
32897,502,65532,499
32904,515,65531,507
32912,504,65532,483
32920,510,65532,515
32927,513,65531,489
32936,504,65532,502
32944,516,65531,511
32952,505,65532,485
32960,509,65532,517
32968,510,65531,488
32976,502,65532,502
32985,516,65531,503
32992,504,65532,487
33000,508,65532,518
33008,510,65531,489
33016,503,65532,502
33025,515,65531,504
33032,504,65532,487
33040,511,65532,519
33048,513,65531,490
33055,508,65532,503
33064,527,65531,510
33072,516,65532,493
33080,522,65532,526
33088,529,65531,500
33096,524,65532,519
33104,532,65531,520
33112,513,65532,499
33120,512,65532,527
33128,508,65531,495
33136,497,65532,506
33144,510,65531,506
33153,497,65532,487
33160,505,65532,515
33168,506,65531,485
33176,499,65532,500
33183,513,65531,505
33192,500,65532,485
33200,502,65532,514
33208,486,65531,478
33216,478,65532,488
33224,548,65531,504
33232,627,65532,527
33240,713,65532,606
33248,726,65531,612
33256,596,65532,613
33264,483,65531,572
33272,436,65532,516
33281,460,65531,524
33288,474,65531,482
33295,469,65532,486
33304,485,65531,487
33312,475,65532,466
33320,486,65531,497
33328,488,65531,467
33336,482,65532,482
33344,497,65531,485
33352,486,65532,469
33360,498,65532,501
33368,499,65531,472
33376,494,65532,490
33384,509,65531,496
33392,499,65532,479
33400,510,65532,512
33409,510,65531,483
33416,506,65532,501
33423,523,65531,509
33432,514,65532,492
33440,527,65532,526
33448,531,65531,499
33456,529,65532,518
33464,547,65531,525
33472,538,65532,513
33479,546,65532,546
33488,546,65531,518
33497,537,65532,538
33504,543,65531,535
33512,522,65532,514
33520,517,65531,539
33528,504,65531,499
33537,488,65532,515
33544,492,65531,501
33552,475,65532,475
33560,480,65532,501
33568,477,65531,465
33576,472,65532,486
33584,485,65531,480
33592,474,65532,462
33600,485,65532,491
33607,487,65531,462
33616,483,65532,486
33625,497,65531,480
33632,485,65532,468
33640,495,65532,499
33648,496,65531,470
33656,494,65532,494
33664,509,65531,491
33672,497,65532,478
33680,506,65532,510
33688,505,65531,480
33696,501,65532,501
33704,512,65531,493
33712,500,65532,484
33719,508,65532,515
33728,507,65531,485
33736,501,65532,504
33744,514,65531,498
33753,501,65532,489
33760,509,65532,518
33768,507,65531,486
33776,503,65532,510
33784,514,65531,499
33793,501,65532,489
33800,511,65532,518
33808,510,65531,487
33816,507,65532,511
33824,521,65531,503
33832,510,65532,496
33840,519,65532,523
33847,520,65531,494
33856,520,65532,518
33864,531,65531,513
33872,511,65532,502
33881,515,65531,527
33888,504,65531,491
33896,496,65532,508
33903,507,65531,501
33912,493,65532,487
33921,505,65531,514
33928,501,65531,482
33936,497,65532,501
33944,509,65531,493
33952,496,65532,485
33960,509,65531,512
33968,498,65531,481
33976,477,65532,493
33984,499,65531,487
33992,553,65532,497
34000,662,65531,568
34009,724,65531,586
34016,681,65532,631
34024,559,65531,595
34031,457,65532,541
34040,443,65531,535
34049,456,65531,485
34056,469,65532,499
34064,484,65531,485
34072,472,65532,471
34080,486,65531,497
34087,483,65531,465
34097,484,65532,492
34104,496,65531,481
34112,485,65532,471
34120,497,65532,501
34128,494,65532,470
34137,496,65532,499
34144,506,65531,485
34152,495,65532,480
34160,509,65532,511
34168,505,65532,480
34177,506,65532,508
34184,519,65531,497
34192,510,65532,491
34200,525,65531,522
34208,523,65532,495
34215,526,65532,524
34225,540,65531,511
34232,531,65532,511
34240,545,65531,542
34248,541,65531,514
34256,538,65532,544
34265,542,65531,522
34271,523,65532,515
34280,522,65531,539
34288,505,65531,501
34296,492,65532,521
34305,492,65531,493
34312,472,65532,481
34320,479,65532,503
34327,472,65531,465
34336,470,65532,488
34344,480,65531,468
34353,470,65532,465
34360,482,65532,490
34368,479,65532,458
34376,481,65532,486
34384,491,65531,468
34393,482,65532,471
34400,496,65532,498
34408,492,65532,468
34416,494,65532,496
34424,504,65531,480
34433,495,65532,482
34440,508,65531,508
34448,502,65532,478
34456,502,65532,505
34464,511,65531,490
34472,499,65532,489
34481,513,65531,510
34488,505,65531,484
34496,505,65532,513
34504,511,65531,492
34512,499,65532,490
34521,512,65531,512
34528,505,65531,485
34536,505,65532,513
34544,513,65531,494
34552,501,65532,494
34561,514,65531,514
34567,507,65531,486
34576,506,65532,513
34584,515,65531,496
34592,502,65532,494
34600,515,65531,516
34609,505,65532,485
34616,508,65532,514
34623,516,65531,499
34632,504,65532,495
34640,516,65531,518
34649,506,65532,487
34656,509,65532,514
34664,516,65531,497
34672,505,65532,497
34679,518,65531,521
34689,509,65532,489
34696,510,65532,515
34704,518,65531,500
34712,506,65532,498
34720,520,65531,519
34728,511,65532,491
34737,515,65532,522
34744,521,65531,500
34751,509,65532,497
34760,526,65531,522
34768,520,65532,495
34777,523,65532,527
34784,529,65531,507
34792,522,65532,508
34800,536,65531,531
34807,523,65532,502
34817,519,65532,531
34824,519,65531,508
34832,500,65532,501
34840,511,65531,521
34848,500,65532,487
34856,505,65532,517
34865,509,65531,490
34872,499,65532,494
34880,512,65531,517
34888,503,65532,485
34896,507,65532,515
34905,506,65531,489
34912,482,65532,487
34920,495,65531,503
34928,532,65532,487
34935,620,65532,551
34945,715,65531,577
34952,720,65532,616
34960,601,65531,625
34968,482,65532,555
34976,443,65532,546
34984,457,65531,496
34991,464,65532,485
35000,485,65531,503
35008,479,65532,470
35016,484,65532,498
35024,491,65531,473
35033,484,65532,480
35040,498,65531,498
35047,491,65532,469
35056,496,65532,501
35064,504,65531,479
35073,496,65532,487
35080,509,65531,507
35088,502,65532,477
35096,507,65532,511
35104,514,65531,487
35112,507,65532,498
35120,521,65531,520
35128,515,65532,490
35136,522,65532,523
35144,531,65531,502
35152,526,65532,512
35161,543,65531,528
35168,537,65532,509
35175,541,65532,541
35184,550,65531,522
35192,540,65532,528
35201,551,65531,544
35208,538,65532,519
35216,532,65532,547
35224,526,65531,517
35231,504,65532,513
35240,504,65531,520
35248,487,65532,487
35256,481,65532,510
35264,482,65531,479
35272,470,65532,480
35280,481,65531,488
35289,469,65532,459
35296,476,65532,489
35304,484,65531,465
35312,476,65532,471
35320,491,65531,486
35329,482,65532,460
35336,490,65532,494
35344,496,65531,471
35352,489,65532,480
35359,503,65531,497
35368,492,65532,471
35376,498,65532,503
35384,504,65531,481
35392,495,65532,487
35400,509,65531,501
35408,497,65532,477
35416,503,65532,510
35424,507,65531,485
35432,497,65532,489
35440,510,65531,504
35448,498,65532,479
35457,505,65532,512
35464,507,65531,486
35471,497,65532,489
35480,510,65531,506
35488,499,65532,480
35496,505,65532,512
35504,509,65531,487
35512,500,65532,494
35520,512,65531,508
35528,499,65532,481
35536,507,65532,513
35545,509,65531,486
35552,501,65532,495
35560,514,65531,511
35568,501,65532,483
35576,509,65532,515
35585,510,65531,486
35592,503,65532,497
35599,516,65531,514
35608,503,65532,484
35616,509,65532,517
35624,511,65531,489
35632,503,65532,497
35640,517,65531,511
35648,505,65532,486
35655,511,65532,519
35664,513,65531,491
35673,505,65532,502
35680,518,65531,513
35688,506,65532,488
35696,514,65532,520
35704,514,65531,492
35713,507,65532,506
35720,519,65531,514
35728,507,65532,488
35736,513,65532,520
35744,514,65531,492
35752,507,65532,505
35760,518,65531,515
35768,505,65532,488
35776,513,65532,519
35783,515,65531,493
35792,508,65532,505
35801,523,65531,513
35808,513,65532,491
35816,520,65532,525
35824,521,65531,497
35832,519,65532,512
35840,535,65531,524
35848,519,65532,499
35856,519,65532,530
35864,514,65531,499
35872,501,65532,507
35880,510,65531,509
35888,497,65532,486
35896,504,65532,516
35904,505,65531,486
35912,498,65532,497
35920,511,65531,504
35929,498,65532,483
35936,508,65532,514
35944,508,65531,487
35952,489,65532,496
35960,490,65531,495
35968,501,65532,477
35976,587,65532,535
35984,673,65531,551
35992,723,65532,609
36000,662,65531,624
36008,504,65532,567
36016,457,65532,557
36023,447,65531,500
36032,461,65532,496
36040,486,65531,497
36048,477,65532,471
36057,488,65532,500
36064,490,65531,470
36072,486,65532,483
36080,501,65531,489
36088,491,65532,472
36096,502,65532,505
36104,505,65531,479
36112,499,65532,491
36120,515,65531,501
36128,505,65532,484
36136,516,65532,518
36144,518,65531,491
36151,512,65532,503
36160,528,65531,514
36168,519,65532,495
36176,530,65532,530
36185,534,65531,503
36192,531,65532,522
36200,549,65531,531
36207,542,65532,513
36216,553,65532,549
36225,555,65531,523
36232,548,65532,540
36240,560,65531,548
36248,545,65532,527
36256,545,65532,556
36264,533,65531,520
36272,516,65532,529
36280,516,65531,529
36288,491,65532,497
36296,490,65532,519
36304,481,65531,480
36313,472,65532,491
36320,482,65531,486
36328,469,65532,463
36335,476,65532,491
36344,479,65531,460
36353,476,65532,477
36360,490,65531,480
36368,480,65532,461
36376,491,65532,495
36384,492,65531,465
36391,488,65532,483
36401,502,65531,485
36408,492,65532,471
36416,502,65532,505
36424,502,65531,476
36432,498,65532,499
36441,510,65531,494
36448,498,65532,481
36456,507,65532,512
36464,507,65531,483
36472,501,65532,503
36481,511,65531,499
36488,498,65532,483
36496,507,65532,514
36504,505,65531,483
36512,500,65532,503
36520,512,65531,501
36529,498,65532,486
36536,506,65532,514
36544,505,65531,484
36552,500,65532,502
36560,511,65531,497
36569,499,65532,487
36575,507,65532,515
36584,506,65531,485
36592,501,65532,501
36600,512,65531,499
36609,499,65532,487
36616,508,65532,516
36624,507,65531,485
36631,500,65532,500
36640,513,65531,500
36648,500,65532,487
36657,510,65532,517
36664,508,65531,486
36672,503,65532,506
36680,514,65531,501
36688,500,65532,489
36697,511,65532,517
36704,509,65531,486
36712,502,65532,505
36720,514,65531,503
36728,501,65532,489
36737,511,65532,517
36744,508,65531,486
36752,502,65532,504
36759,515,65531,504
36768,502,65532,488
36776,511,65532,518
36785,507,65532,486
36792,502,65532,504
36800,514,65531,501
36808,501,65532,489
36816,511,65532,518
36825,505,65532,486
36832,501,65532,503
36840,514,65531,502
36848,502,65532,488
36856,516,65532,520
36865,514,65531,489
36872,510,65532,512
36880,522,65531,508
36887,514,65532,495
36896,524,65532,527
36904,515,65531,495
36913,505,65532,518
36920,509,65531,505
36928,491,65532,487
36936,501,65532,514
36943,498,65531,481
36953,494,65532,504
36960,504,65531,496
36968,491,65532,480
36976,502,65532,509
36984,498,65532,477
36993,496,65532,502
37000,497,65531,488
37008,470,65532,472
37016,494,65532,502
37024,568,65532,494
37032,644,65532,557
37041,724,65531,590
37048,679,65532,607
37056,539,65532,607
37064,453,65532,532
37072,429,65532,519
37081,459,65531,488
37088,461,65532,472
37096,478,65532,498
37104,476,65531,463
37112,476,65532,488
37121,488,65531,471
37127,477,65532,463
37136,489,65532,495
37144,489,65531,464
37152,489,65532,492
37160,500,65531,480
37169,490,65532,477
37176,502,65532,504
37183,500,65531,474
37192,500,65532,501
37200,512,65531,491
37209,502,65532,487
37216,514,65532,515
37224,513,65532,486
37232,514,65532,513
37240,528,65531,501
37249,521,65532,503
37256,535,65532,533
37264,537,65532,505
37272,536,65532,532
37280,548,65531,522
37288,537,65532,521
37297,546,65531,544
37304,536,65531,516
37311,523,65532,534
37320,521,65531,517
37328,497,65532,504
37337,497,65531,520
37344,483,65531,482
37352,473,65532,500
37360,477,65531,478
37367,462,65532,465
37377,474,65531,488
37384,470,65531,456
37392,469,65532,480
37400,480,65531,466
37408,471,65532,461
37416,485,65531,486
37425,480,65532,456
37432,482,65532,485
37440,495,65531,476
37448,486,65532,471
37456,499,65531,498
37465,492,65532,468
37472,494,65532,495
37480,505,65531,482
37488,493,65532,481
37496,505,65532,508
37505,498,65532,477
37512,498,65532,501
37520,508,65531,489
37528,495,65532,485
37536,508,65531,509
37544,500,65532,480
37551,499,65532,502
37560,508,65531,491
37568,496,65532,485
37576,509,65531,511
37584,501,65532,481
37593,503,65532,511
37600,510,65531,491
37607,496,65532,485
37616,510,65531,512
37624,502,65532,482
37633,504,65532,512
37640,513,65531,494
37648,499,65532,489
37656,512,65531,514
37663,504,65532,483
37672,505,65532,513
37680,513,65531,497
37688,500,65532,490
37696,512,65532,516
37704,505,65532,484
37712,507,65532,515
37721,513,65531,492
37728,502,65532,493
37736,514,65532,520
37744,506,65532,487
37752,508,65532,516
37761,514,65531,494
37768,503,65532,494
37776,517,65531,518
37784,508,65532,489
37791,509,65532,516
37800,516,65531,496
37808,504,65532,494
37816,517,65531,520
37824,509,65532,490
37832,511,65532,520
37840,517,65531,496
37848,505,65532,498
37856,518,65531,521
37864,511,65532,491
37872,514,65532,521
37880,522,65531,499
37889,515,65532,506
37896,526,65531,526
37903,519,65532,496
37912,524,65532,528
37920,535,65531,509
37928,517,65532,511
37936,523,65532,531
37944,507,65532,495
37952,504,65532,521
37959,509,65531,498
37968,498,65532,496
37977,510,65531,513
37984,501,65532,484
37992,503,65532,512
38000,511,65531,490
38008,500,65532,494
38017,514,65531,509
38024,499,65532,484
38032,485,65532,506
38040,498,65531,484
38048,543,65532,502
38056,651,65531,557
38064,706,65532,578
38072,703,65532,637
38080,585,65531,596
38087,470,65532,556
38096,445,65531,535
38105,446,65532,485
38112,470,65532,506
38120,484,65531,478
38128,475,65532,478
38136,491,65531,493
38144,483,65532,465
38152,488,65532,496
38160,498,65531,476
38168,489,65532,480
38176,504,65531,499
38184,496,65532,472
38192,501,65532,504
38199,511,65531,487
38208,500,65532,489
38216,515,65531,510
38224,506,65532,482
38233,513,65532,517
38240,522,65531,495
38248,514,65532,500
38256,530,65531,519
38264,523,65532,496
38273,530,65532,531
38280,541,65531,511
38288,534,65532,516
38296,551,65531,538
38304,543,65532,515
38312,547,65532,549
38320,551,65531,525
38327,535,65532,526
38336,540,65531,542
38344,520,65532,511
38352,510,65532,535
38361,502,65531,500
38368,482,65532,498
38376,487,65531,506
38383,472,65532,471
38392,472,65532,495
38401,475,65531,465
38408,466,65532,468
38416,480,65531,484
38424,471,65532,454
38432,478,65532,487
38439,486,65531,462
38449,479,65532,473
38456,493,65531,489
38464,485,65532,461
38472,491,65532,495
38480,497,65531,470
38489,490,65532,483
38496,505,65531,496
38504,494,65532,471
38512,499,65532,504
38520,504,65531,479
38529,496,65532,490
38536,508,65531,503
38544,497,65532,477
38552,503,65532,509
38560,506,65531,483
38568,497,65532,491
38577,511,65531,503
38584,500,65532,481
38592,504,65532,512
38600,508,65531,486
38608,499,65532,496
38617,512,65531,505
38623,502,65532,483
38632,506,65532,514
38640,510,65531,488
38648,501,65532,498
38657,514,65531,507
38664,500,65532,482
38672,506,65532,514
38679,511,65531,490
38688,501,65532,498
38696,514,65531,509
38705,501,65532,484
38712,508,65532,516
38720,512,65531,489
38728,503,65532,500
38736,516,65531,507
38745,502,65532,487
38752,508,65532,518
38760,512,65531,491
38768,503,65532,500
38776,517,65531,509
38785,504,65532,487
38792,512,65532,519
38800,515,65531,492
38807,504,65532,500
38816,517,65531,511
38824,505,65532,488
38833,515,65532,520
38840,518,65531,494
38848,512,65532,506
38856,525,65531,515
38863,511,65532,491
38873,524,65532,526
38880,531,65531,502
38888,517,65532,512
38896,524,65531,520
38904,503,65532,494
38913,506,65532,521
38919,507,65531,492
38928,497,65532,498
38936,509,65531,508
38944,496,65532,482
38952,505,65532,513
38961,505,65531,482
38968,499,65532,496
38975,513,65531,509
38984,495,65532,481
38992,490,65532,508
39001,498,65531,478
39008,541,65532,504
39016,643,65531,551
39024,695,65532,572
39032,699,65532,633
39041,582,65531,587
39048,485,65532,561
39056,448,65531,534
39064,434,65532,483
39072,466,65532,504
39080,477,65531,469
39089,476,65532,485
39096,490,65531,486
39103,480,65532,462
39112,491,65532,496
39120,494,65531,468
39129,490,65532,487
39136,504,65531,494
39144,493,65532,471
39152,503,65532,504
39159,507,65531,479
39169,502,65532,496
39176,516,65531,505
39184,505,65532,482
39192,515,65532,516
39200,517,65531,489
39208,514,65532,507
39215,528,65531,518
39224,520,65532,495
39232,531,65532,529
39240,536,65531,504
39248,534,65532,523
39257,549,65531,528
39264,539,65532,514
39272,547,65532,548
39280,546,65531,519
39288,534,65532,533
39297,539,65531,533
39304,518,65532,511
39312,512,65532,536
39320,502,65531,498
39328,484,65532,507
39336,488,65531,497
39343,471,65532,471
39352,476,65532,497
39360,475,65531,464
39368,470,65532,478
39376,484,65531,477
39385,472,65532,460
39392,483,65532,489
39399,487,65531,462
39408,483,65532,479
39416,497,65531,484
39425,485,65532,467
39432,495,65532,498
39440,497,65531,471
39448,493,65532,488
39455,506,65531,494
39464,493,65532,476
39472,501,65532,506
39480,504,65531,479
39488,498,65532,494
39496,510,65531,497
39504,498,65532,482
39513,509,65532,514
39520,507,65531,484
39527,499,65532,497
39536,513,65531,501
39544,498,65532,484
39553,510,65532,516
39560,508,65531,486
39568,502,65532,503
39576,514,65531,503
39583,501,65532,484
39592,511,65532,517
39600,510,65531,488
39608,503,65532,503
39616,516,65531,505
39624,501,65532,488
39632,513,65532,518
39641,508,65531,486
39648,504,65532,504
39656,516,65531,508
39664,502,65532,489
39672,513,65532,519
39681,509,65531,488
39688,504,65532,503
39696,517,65531,505
39704,506,65532,491
39711,519,65532,522
39720,519,65531,493
39728,513,65532,509
39736,525,65531,513
39744,516,65532,497
39752,527,65532,530
39760,518,65531,498
39769,509,65532,521
39776,512,65531,509
39784,495,65532,488
39792,505,65532,518
39800,503,65531,484
39809,499,65532,508
39816,510,65531,502
39824,497,65532,484
39832,508,65532,514
39840,507,65531,483
39848,502,65532,506
39856,504,65531,501
39864,476,65532,476
39872,507,65532,509
39880,589,65531,505
39888,661,65532,568
39896,733,65531,609
39904,680,65532,613
39912,552,65532,616
39920,456,65531,540
39928,433,65532,524
39937,463,65531,496
39944,466,65532,477
39951,480,65532,502
39960,481,65531,468
39968,480,65532,486
39976,494,65531,479
39984,483,65532,468
39992,496,65532,501
40000,495,65531,470
40008,493,65532,496
40016,506,65531,487
40024,494,65532,478
40032,507,65532,509
40040,507,65531,480
40048,505,65532,506
40056,518,65531,499
40065,507,65532,491
40072,519,65532,520
40079,520,65531,492
40088,520,65532,516
40096,534,65531,513
40104,526,65532,506
40112,538,65532,536
40120,541,65531,509
40128,540,65532,534
40135,553,65531,533
40144,540,65532,522
40153,547,65532,551
40160,538,65531,519
40168,524,65532,534
40176,521,65531,520
40184,496,65532,504
40193,495,65531,521
40200,482,65531,483
40208,471,65532,493
40216,477,65531,481
40224,462,65532,465
40232,475,65531,489
40240,472,65531,456
40248,470,65532,479
40256,483,65531,470
40263,472,65532,458
40272,487,65531,490
40281,484,65531,460
40288,485,65532,485
40296,498,65531,480
40304,486,65532,471
40312,500,65532,501
40321,494,65532,470
40328,494,65532,494
40336,507,65531,491
40344,493,65532,480
40352,506,65532,510
40360,499,65532,478
40368,498,65532,499
40376,509,65531,492
40384,495,65532,484
40392,506,65532,513
40400,500,65532,481
40409,500,65532,507
40416,509,65531,494
40424,496,65532,485
40432,509,65531,513
40440,502,65532,482
40448,501,65532,507
40456,511,65531,496
40464,498,65532,485
40472,511,65531,515
40480,504,65531,484
40488,505,65532,513
40496,514,65531,499
40503,500,65532,486
40512,512,65531,517
40520,506,65531,485
40528,506,65532,513
40537,514,65531,495
40544,501,65532,491
40552,512,65532,519
40560,505,65532,486
40568,506,65532,514
40577,515,65531,497
40584,502,65532,491
40592,515,65532,520
40600,512,65532,489
40608,515,65532,517
40616,522,65531,500
40624,510,65532,498
40631,526,65532,528
40640,520,65532,497
40648,515,65532,522
40656,517,65531,503
40665,498,65532,498
40672,507,65531,520
40680,499,65531,486
40687,498,65532,508
40696,508,65531,492
40705,496,65532,489
40712,508,65531,515
40720,503,65531,483
40728,504,65532,511
40736,511,65531,492
40743,487,65532,485
40753,489,65531,503
40760,501,65531,477
40768,584,65532,531
40776,675,65531,556
40784,724,65532,602
40793,666,65531,633
40800,527,65532,573
40808,453,65532,558
40816,445,65531,509
40824,453,65532,489
40833,480,65531,504
40840,477,65532,469
40848,478,65532,492
40856,490,65531,474
40864,481,65532,474
40871,496,65531,499
40881,489,65532,468
40888,492,65532,495
40896,503,65531,481
40904,493,65532,481
40912,509,65531,504
40921,501,65532,478
40927,504,65532,504
40936,516,65531,493
40944,504,65532,491
40952,520,65531,516
40961,514,65532,490
40968,518,65532,521
40976,531,65531,505
40984,523,65532,508
40992,539,65531,532
41000,536,65532,506
41009,543,65532,541
41016,552,65531,524
41024,541,65532,525
41032,552,65531,548
41040,540,65532,518
41049,536,65532,548
41055,536,65531,526
41064,510,65532,515
41072,509,65531,531
41080,488,65532,490
41089,481,65532,512
41096,482,65531,482
41104,466,65532,474
41111,477,65531,494
41120,468,65532,458
41128,471,65532,486
41137,479,65531,461
41144,470,65532,463
41152,487,65531,486
41160,480,65532,458
41168,486,65532,491
41177,493,65531,467
41184,484,65532,470
41192,500,65531,496
41200,492,65532,468
41208,497,65532,501
41217,504,65531,478
41224,493,65532,483
41232,507,65531,505
41239,499,65532,477
41248,501,65532,508
41256,507,65531,485
41265,497,65532,491
41272,508,65531,510
41280,498,65532,478
41288,501,65532,510
41295,508,65531,488
41305,497,65532,491
41312,508,65531,512
41320,499,65532,480
41328,502,65532,510
41336,508,65531,487
41345,499,65532,493
41352,511,65531,510
41360,502,65532,482
41368,504,65532,512
41376,510,65531,489
41384,500,65532,494
41393,514,65531,508
41400,504,65532,485
41408,507,65532,516
41416,512,65531,491
41423,501,65532,494
41433,514,65531,510
41440,505,65532,486
41448,508,65532,517
41456,514,65531,492
41464,503,65532,499
41473,517,65531,511
41479,507,65532,487
41488,508,65532,517
41496,515,65531,494
41504,504,65532,499
41512,517,65531,513
41521,506,65532,487
41528,514,65532,519
41535,524,65531,499
41544,511,65532,503
41552,525,65531,520
41561,517,65532,494
41568,520,65532,526
41576,520,65531,501
41584,505,65532,504
41592,512,65531,514
41601,497,65532,486
41608,501,65532,514
41616,507,65531,491
41624,497,65532,494
41632,510,65531,508
41640,499,65532,482
41649,506,65532,514
41656,510,65531,489
41663,498,65532,491
41672,496,65531,503
41680,478,65532,472
41689,529,65532,514
41696,609,65531,519
41704,684,65532,570
41712,733,65531,626
41719,634,65532,601
41729,498,65532,593
41736,453,65531,528
41744,436,65532,502
41752,471,65531,504
41760,470,65532,469
41768,480,65532,498
41775,487,65531,472
41784,477,65532,474
41792,493,65531,492
41800,484,65532,463
41808,492,65532,497
41817,497,65531,471
41824,491,65532,481
41832,506,65531,497
41840,496,65532,474
41847,504,65532,508
41857,508,65531,482
41864,501,65532,491
41872,517,65531,508
41880,508,65532,485
41888,518,65532,519
41896,524,65531,494
41903,518,65532,503
41912,536,65531,524
41920,529,65532,501
41928,539,65532,537
41936,546,65531,513
41945,540,65532,530
41952,552,65531,542
41959,542,65532,517
41968,542,65532,549
41976,540,65531,521
41985,519,65532,527
41992,520,65531,532
42000,494,65532,495
42008,489,65532,518
42016,481,65531,481
42024,468,65532,486
42032,477,65531,492
42040,465,65532,458
42048,470,65532,487
42056,474,65531,457
42064,470,65532,469
42073,485,65531,475
42080,476,65532,457
42088,484,65532,489
42096,489,65531,464
42104,483,65532,477
42113,499,65531,486
42120,489,65532,467
42128,498,65532,501
42136,500,65531,475
42143,494,65532,486
42152,508,65531,496
42160,496,65532,476
42168,502,65532,508
42176,505,65531,482
42184,497,65532,495
42192,509,65531,501
42200,495,65532,478
42208,502,65532,510
42216,506,65531,484
42224,498,65532,495
42232,510,65531,503
42241,496,65532,481
42248,504,65532,511
42255,508,65531,486
42264,499,65532,496
42272,512,65531,505
42280,499,65532,482
42288,506,65532,513
42296,509,65531,486
42304,502,65532,498
42312,515,65531,504
42320,501,65532,485
42329,510,65532,516
42336,511,65531,488
42344,503,65532,499
42352,516,65531,507
42360,503,65532,486
42369,513,65532,519
42376,513,65531,490
42383,504,65532,500
42392,517,65531,509
42400,504,65532,487
42408,514,65532,520
42416,515,65531,492
42424,506,65532,504
42432,518,65531,510
42439,505,65532,487
42448,514,65532,520
42457,513,65531,490
42464,506,65532,504
42472,520,65531,512
42480,507,65532,491
42488,520,65532,523
42497,520,65531,494
42504,514,65532,509
42512,528,65531,520
42520,519,65532,498
42528,525,65532,529
42536,517,65531,497
42544,506,65532,509
42552,512,65531,512
42560,496,65532,489
42567,506,65532,518
42576,504,65531,486
42585,500,65532,502
42592,513,65531,505
42600,500,65532,484
42608,510,65532,516
42616,508,65531,485
42624,498,65532,500
42632,495,65531,500
42640,481,65532,473
42648,549,65532,521
42656,634,65531,527
42664,706,65532,595
42672,726,65531,630
42679,603,65532,597
42688,484,65532,587
42696,443,65531,517
42704,446,65532,510
42713,478,65531,496
42720,471,65532,473
42728,483,65532,500
42735,485,65531,468
42744,481,65532,485
42753,495,65531,485
42760,484,65532,467
42768,495,65532,499
42776,497,65531,471
42784,494,65532,490
42791,508,65531,494
42801,496,65532,479
42808,506,65532,509
42816,509,65531,481
42824,506,65532,501
42832,519,65531,501
42841,509,65532,491
42848,522,65532,523
42856,524,65531,495
42864,522,65532,513
42872,539,65531,518
42881,529,65532,507
42888,543,65532,540
42896,546,65531,514
42904,542,65532,537
42912,555,65531,536
42919,541,65532,522
42929,546,65532,553
42936,538,65531,520
42944,520,65532,533
42952,519,65531,524
42960,492,65532,500
42969,492,65532,520
42975,484,65531,482
42984,471,65532,491
42992,479,65531,485
43000,464,65532,464
43009,475,65532,490
43016,474,65531,457
43024,471,65532,474
43032,486,65531,472
43040,474,65532,460
43048,488,65532,492
43057,486,65531,462
43064,485,65532,480
43072,500,65531,482
43080,488,65532,470
43088,502,65531,503
43097,497,65531,473
43103,494,65532,490
43112,507,65531,493
43120,493,65532,478
43128,506,65532,511
43137,502,65531,479
43144,499,65532,500
43152,510,65531,498
43159,497,65532,481
43168,508,65532,514
43176,504,65531,482
43185,502,65532,507
43192,512,65531,500
43200,497,65532,484
43208,509,65532,515
43216,503,65531,482
43225,502,65532,507
43232,513,65531,502
43240,498,65532,485
43248,509,65532,515
43256,504,65531,483
43265,503,65532,507
43272,515,65531,499
43280,500,65532,487
43287,511,65532,517
43296,507,65531,486
43304,506,65532,508
43313,515,65531,497
43320,502,65532,489
43328,515,65531,521
43336,509,65531,488
43343,506,65532,509
43353,516,65531,500
43360,503,65532,490
43368,513,65532,521
43376,511,65531,489
43384,509,65532,515
43393,518,65531,501
43400,503,65532,493
43408,514,65532,521
43416,510,65531,489
43424,508,65532,514
43432,519,65531,503
43441,511,65532,498
43448,523,65532,526
43456,516,65531,494
43464,516,65532,519
43472,531,65531,512
43481,515,65532,504
43488,521,65532,529
43496,510,65531,495
43504,502,65532,514
43512,509,65531,498
43521,497,65532,492
43527,507,65532,517
43536,503,65531,485
43544,502,65532,506
43552,512,65531,495
43560,499,65532,490
43569,513,65531,515
43576,505,65531,486
43583,488,65532,501
43592,494,65531,488
43600,518,65532,489
43609,625,65531,550
43616,688,65531,564
43624,719,65532,628
43632,630,65531,613
43640,485,65532,566
43649,449,65531,549
43656,441,65531,490
43664,462,65532,502
43672,483,65531,485
43680,473,65532,473
43688,488,65531,497
43697,483,65532,464
43704,485,65532,490
43711,498,65531,482
43720,487,65532,474
43728,501,65531,503
43737,496,65532,472
43744,498,65532,497
43752,510,65531,488
43760,498,65532,484
43767,512,65531,515
43777,507,65532,483
43784,508,65532,507
43792,521,65531,500
43800,510,65532,495
43808,527,65531,523
43816,523,65531,496
43825,529,65532,530
43832,541,65531,515
43839,531,65532,510
43848,548,65531,542
43856,543,65531,515
43865,544,65532,546
43872,553,65531,531
43880,536,65532,525
43888,540,65531,548
43895,524,65531,513
43905,509,65532,534
43912,507,65531,511
43920,482,65532,493
43928,485,65531,511
43936,470,65532,470
43944,469,65532,493
43951,476,65531,475
43960,463,65532,461
